  
  Rhino 物体: 曲线
  开发人员除错信息
  使用 Rhino 的"What"指令。
  名称: ""
  ID:85DC6ED3-178A-4ea4-BDA9-AD8BD0D6A24B
  图层索引: 5
  渲染材质索引: -1 (从图层)
  ON_NurbsCurve dim = 3 is_rat = 0
          order = 4 cv_count = 22
  Knot Vector ( 24 knots )
  index                     value  mult       delta
      0      -24497.023300564735     3
      3      -23213.844646922065     1        1283
      4      -21930.665993279392     1        1283
      5      -21501.116020030284     1       429.5
      6      -21071.566046781176     1       429.5
      7      -20642.016073532068     1       429.5
      8      -20212.466100282963     1       429.5
      9      -19782.916127033855     1       429.5
     10      -19353.366153784747     1       429.5
     11      -18703.765285119742     1       649.6
     12       -18054.16441645474     1       649.6
     13      -17404.563547789738     1       649.6
     14      -16754.962679124736     1       649.6
     15      -16096.754733988553     1       658.2
     16      -15438.546788852371     1       658.2
     17      -14780.338843716187     1       658.2
     18      -14122.130898580004     1       658.2
     19      -13451.571642368992     1       670.6
     20       -12781.01238615798     1       670.6
     21      -12434.462762152776     3       346.5
  Control Points  22 non-rational points
    index               value
    CV[ 0] (-22347.388883740561, 4831.350712167573, 12299.999999999998)
    CV[ 1] (-22409.491616905318, 4802.3917321158642, 12712.7545572095)
    CV[ 2] (-22502.94819472072, 4758.8122141751519, 13543.551638770932)
    CV[ 3] (-22536.935068755316, 4742.9638744596386, 14523.631992750292)
    CV[ 4] (-22525.196254929058, 4748.4377731547384, 15218.021200707417)
    CV[ 5] (-22507.304975724026, 4756.7806135972751, 15636.668525951622)
    CV[ 6] (-22478.863195038582, 4770.0432336675221, 16053.721324736487)
    CV[ 7] (-22439.225500405162, 4788.5265941394655, 16470.10360567844)
    CV[ 8] (-22391.117399336777, 4810.9597699959868, 16885.294964988385)
    CV[ 9] (-22332.865241566178, 4838.1231971832949, 17370.791398311881)
    CV[10] (-22260.442731248371, 4871.8943682915169, 17927.306679433284)
    CV[11] (-22172.197557002783, 4913.0437687846888, 18552.840869704418)
    CV[12] (-22077.063765834388, 4957.4053841349205, 19176.993269770206)
    CV[13] (-21974.566335475865, 5005.2007208634177, 19803.285719726973)
    CV[14] (-21864.810947726262, 5056.3804987389049, 20429.091771300151)
    CV[15] (-21748.05508370759, 5110.8246523405023, 21057.247333655367)
    CV[16] (-21615.766760192208, 5172.5117108145514, 21681.354704722173)
    CV[17] (-21468.760011369457, 5241.0620837815322, 22302.859694792827)
    CV[18] (-21302.977951269357, 5318.3675282451259, 22934.382583983708)
    CV[19] (-21150.728401949436, 5389.3626593075933, 23460.775612457561)
    CV[20] (-21052.906749711612, 5434.9776450618247, 23776.545912469152)
    CV[21] (-21018.940646155901, 5450.8162993322276, 23883.783165188444)
