  
  Rhino 物体: 曲线
  开发人员除错信息
  使用 Rhino 的"What"指令。
  名称: ""
  ID:3F8174CC-2F4D-4ee0-985D-17C09D14E8CE
  图层索引: 5
  渲染材质索引: -1 (从图层)
  ON_NurbsCurve dim = 3 is_rat = 0
          order = 4 cv_count = 88
  Knot Vector ( 90 knots )
  index                     value  mult       delta
      0                        0     3
      3       1261.9378412471676     3        1262
      6       2523.8438690405901     3        1262
      9       2941.1136102487526     3       417.3
     12       3358.4418853364205     3       417.3
     15       3775.8227325377252     3       417.4
     18       4193.2307376502258     3       417.4
     21       4610.7470764238187     3       417.5
     24       5028.1811265251681     3       417.4
     27       5662.9759324847437     3       634.8
     30       6297.6989543418786     3       634.7
     33       6932.4016499457848     3       634.7
     36        7567.027328020099     3       634.6
     39       8217.1530000906459     3       650.1
     42       8867.1210151553696     3         650
     45       9517.2573763892506     3       650.1
     48       10167.461722462631     3       650.2
     51       10838.065972929708     3       670.6
     54       11173.180076818144     2       335.1
     56       11508.298495592646     3       335.1
     59       12178.626950284433     3       670.3
     62       12513.755907836277     2       335.1
     64       12848.889481022657     3       335.1
     67       13193.594839374517     2       344.7
     69       13538.304252293232     3       344.7
     72       13883.128827127413     2       344.8
     74       14227.957760298799     3       344.8
     77       14572.907483621921     2       344.9
     79       14917.861430020288     3         345
     82       15262.749254610117     2       344.9
     84       15607.641316255371     3       344.9
     87       16666.337216395081     3        1059
  Control Points  88 non-rational points
    index               value
    CV[ 0] (-12917.742254754265, -20496.492385113699, 12299.999999999998)
    CV[ 1] (-12977.070189217988, -20559.559836912675, 12711.958458854144)
    CV[ 2] (-13025.297785861771, -20610.827282074988, 13126.025879777722)
    CV[ 3] (-13061.998518003915, -20649.841309384115, 13543.57522071878)
    CV[ 4] (-13098.536792959178, -20688.682639617309, 13959.276263619069)
    CV[ 5] (-13123.904511306919, -20715.649318444215, 14381.341834418923)
    CV[ 6] (-13137.269209175276, -20729.856410705885, 14800.000000000004)
    CV[ 7] (-13141.709458998308, -20734.576535284985, 14939.093817454148)
    CV[ 8] (-13144.824269645946, -20737.887676523223, 15077.799869918441)
    CV[ 9] (-13146.660803416642, -20739.839969420449, 15217.018587931681)
    CV[10] (-13148.494958771558, -20741.789733987236, 15356.057009779801)
    CV[11] (-13149.049516666337, -20742.379246391723, 15495.254486503669)
    CV[12] (-13148.312810058391, -20741.596104202355, 15634.314587049084)
    CV[13] (-13147.575760483394, -20740.812597428274, 15773.439425758021)
    CV[14] (-13145.545694290089, -20738.654573506617, 15912.530811571094)
    CV[15] (-13142.235768030805, -20735.136018264428, 16051.575834269996)
    CV[16] (-13138.925483895486, -20731.617082588808, 16190.63589080282)
    CV[17] (-13134.336370666893, -20726.738711548918, 16329.594634436235)
    CV[18] (-13128.462217466044, -20720.494302785944, 16468.474265291945)
    CV[19] (-13122.588810415689, -20714.250687204309, 16607.336255289134)
    CV[20] (-13115.426977547833, -20706.637434640088, 16746.206897242137)
    CV[21] (-13106.95388629664, -20697.630273360948, 16884.782799760902)
    CV[22] (-13098.472892692984, -20688.614711633731, 17023.487943850712)
    CV[23] (-13088.691821437382, -20678.217126659118, 17161.674718061349)
    CV[24] (-13077.681225225999, -20666.512518162017, 17299.999999999993)
    CV[25] (-13060.9764332292, -20648.754801268733, 17509.861030077082)
    CV[26] (-13041.429280643486, -20627.975566079607, 17720.192634073173)
    CV[27] (-13020.200818799773, -20605.409046510089, 17929.173371142395)
    CV[28] (-12998.931292737572, -20582.798874390661, 18138.558359386749)
    CV[29] (-12975.90690117472, -20558.323225301971, 18347.245520807708)
    CV[30] (-12950.961345715597, -20531.805318842933, 18555.765272601755)
    CV[31] (-12926.045092352491, -20505.318561429365, 18764.040088347028)
    CV[32] (-12899.201374649991, -20476.782849077146, 18972.238234584715)
    CV[33] (-12870.635258929393, -20446.416173706129, 19179.511871262373)
    CV[34] (-12841.994105649925, -20415.969731060726, 19387.329974953525)
    CV[35] (-12811.745658224956, -20383.814684416819, 19593.317149061961)
    CV[36] (-12779.476717619684, -20349.511790263787, 19800)
    CV[37] (-12746.558886154739, -20314.519104811174, 20010.839002652607)
    CV[38] (-12711.540038860552, -20277.292973752581, 20222.392009409166)
    CV[39] (-12674.874262357112, -20238.316105381804, 20431.909512408572)
    CV[40] (-12638.110699315392, -20199.23528685929, 20641.985792373376)
    CV[41] (-12599.543380892528, -20158.237019893884, 20850.862108313762)
    CV[42] (-12558.936065241789, -20115.070172006152, 21059.425719378512)
    CV[43] (-12518.382527154907, -20071.960491352489, 21267.713122998062)
    CV[44] (-12475.79346825165, -20026.686988342073, 21475.693387525589)
    CV[45] (-12431.400684181714, -19979.496069007691, 21682.306393437641)
    CV[46] (-12386.866067764067, -19932.154377447147, 21889.579515814792)
    CV[47] (-12340.714979669568, -19883.094325884929, 22094.550836567108)
    CV[48] (-12292.375766236473, -19831.708228581032, 22299.999999999993)
    CV[49] (-12242.775425522625, -19778.981513493785, 22510.80915020992)
    CV[50] (-12190.794198971664, -19723.723842219904, 22722.447323150758)
    CV[51] (-12138.105382625774, -19667.713980840497, 22931.649764256428)
    CV[52] (-12111.699349841705, -19639.6435412598, 23036.495667077219)
    CV[53] (-12084.99993897119, -19611.261231588007, 23141.187626015952)
    CV[54] (-12030.979333678406, -19553.835636861844, 23350.221042428973)
    CV[55] (-12003.656109530546, -19524.790194145622, 23454.570158635088)
    CV[56] (-11976.006246603458, -19495.397524180535, 23558.729021392515)
    CV[57] (-11920.728570449957, -19436.635623772523, 23766.96368422627)
    CV[58] (-11864.049832052193, -19376.384350333814, 23974.802849165691)
    CV[59] (-11806.240317505235, -19314.931026445691, 24181.567577845435)
    CV[60] (-11777.322239924035, -19284.190204597486, 24284.997584339606)
    CV[61] (-11748.095911335997, -19253.121702278149, 24388.247517747659)
    CV[62] (-11689.062917508036, -19190.367781609115, 24594.384523065557)
    CV[63] (-11659.254252509656, -19158.680237453562, 24697.278756691161)
    CV[64] (-11629.17580748498, -19126.705908683667, 24800.000000000015)
    CV[65] (-11598.237507953379, -19093.817527652223, 24905.657742318152)
    CV[66] (-11567.012434499575, -19060.624296963033, 25011.139828067153)
    CV[67] (-11503.987638676994, -18993.626965796691, 25221.729799848694)
    CV[68] (-11472.185901685911, -18959.820723712954, 25326.844420644797)
    CV[69] (-11440.090591183656, -18925.702403795516, 25431.762909859513)
    CV[70] (-11407.983783322925, -18891.571861826051, 25536.71898355192)
    CV[71] (-11375.580583888439, -18857.126246334123, 25641.485368500009)
    CV[72] (-11310.190126915841, -18787.614143300198, 25850.620644171024)
    CV[73] (-11277.200676024218, -18752.545324154744, 25954.996529780699)
    CV[74] (-11243.92336715417, -18717.170502965837, 26059.171539560142)
    CV[75] (-11210.633566110719, -18681.782402205492, 26163.385656236471)
    CV[76] (-11177.053793347539, -18646.086052428509, 26267.405825753707)
    CV[77] (-11109.324753235851, -18574.087962300378, 26475.042167069209)
    CV[78] (-11075.173277287548, -18537.783874138495, 26578.665080964842)
    CV[79] (-11040.738500654406, -18501.17862847893, 26682.082165955951)
    CV[80] (-11006.309491819575, -18464.579514169549, 26785.481928665744)
    CV[81] (-10971.59440942748, -18427.676294712295, 26888.682233732747)
    CV[82] (-10901.58678826968, -18353.25600159337, 27094.656373433754)
    CV[83] (-10866.291916054854, -18315.736447402225, 27197.437034998362)
    CV[84] (-10830.709446344759, -18277.9111680694, 27300.000000000011)
    CV[85] (-10721.871000335845, -18162.212492401868, 27613.71610289548)
    CV[86] (-10609.475810058551, -18042.732886221002, 27927.908339446869)
    CV[87] (-10494.924301698964, -17920.961046407734, 28238.883096556892)
