  
  Rhino 物体: 曲线
  开发人员除错信息
  使用 Rhino 的"What"指令。
  名称: ""
  ID:7DC3DBFE-0511-4a9a-B0F6-EA1B4618A950
  图层索引: 5
  渲染材质索引: -1 (从图层)
  ON_NurbsCurve dim = 3 is_rat = 0
          order = 4 cv_count = 83
  Knot Vector ( 85 knots )
  index                     value  mult       delta
      0                        0     3
      3       1255.4034537308153     3        1255
      6       2510.7550317137143     3        1255
      9       2928.8001524259976     3         418
     12       3346.6896126981683     3       417.9
     15       3764.6472161222559     3         418
     18         4182.86314492362     3       418.2
     21       4600.7978166825214     3       417.9
     24       5019.0325261121934     3       418.2
     27       5658.0254547116137     3         639
     30       6297.0732323603333     3         639
     33       6935.8082193186128     3       638.7
     36       7574.6948312944669     3       638.9
     39       8230.1519553284888     3       655.5
     42       8885.6136231387663     3       655.5
     45       9541.1674028406214     3       655.6
     48       10196.665598605299     3       655.5
     51       10875.136760741076     3       678.5
     54       11553.753753174493     3       678.6
     57       12232.340232555767     3       678.6
     60       12571.572038198025     2       339.2
     62       12910.809389456641     3       339.2
     65        13258.99518618106     2       348.2
     67       13607.182107795577     3       348.2
     70       14303.528998244577     3       696.3
     73       14999.883026475678     3       696.4
     76       15696.189845102852     3       696.3
     79       17118.833942460897     3        1423
     82       18102.059930699575     3       983.2
  Control Points  83 non-rational points
    index               value
    CV[ 0] (-8054.6227326828803, -27739.072676883563, 12299.999999999993)
    CV[ 1] (-8092.5845247477009, -27789.90968180653, 12713.691794628745)
    CV[ 2] (-8121.7379538209871, -27828.950858123739, 13129.183305520566)
    CV[ 3] (-8141.7277876693533, -27855.72049218167, 13546.383534366767)
    CV[ 4] (-8161.6818294173399, -27882.442194804225, 13962.83675988201)
    CV[ 5] (-8172.5635405579396, -27897.014573312601, 14382.217802662353)
    CV[ 6] (-8174.0853058821467, -27899.052464230561, 14800)
    CV[ 7] (-8174.5930634048627, -27899.732434018024, 14939.398664288881)
    CV[ 8] (-8174.058812158145, -27899.016984831287, 15078.638476887367)
    CV[ 9] (-8172.4885866964487, -27896.914197918853, 15218.014969170728)
    CV[10] (-8170.9196779923632, -27894.813174358715, 15357.27458329796)
    CV[11] (-8168.3181460376218, -27891.329300558325, 15496.52755124513)
    CV[12] (-8164.6814352198999, -27886.45915413773, 15635.67919599848)
    CV[13] (-8161.0435000414136, -27881.587368099223, 15774.87768852788)
    CV[14] (-8156.3702394515349, -27875.329113188385, 15913.953721336891)
    CV[15] (-8150.66312713347, -27867.686362906366, 16052.958038922472)
    CV[16] (-8144.9540343203071, -27860.040960419759, 16192.010594102592)
    CV[17] (-8138.2095630135818, -27851.009017975171, 16331.011090423979)
    CV[18] (-8130.4355840952576, -27840.598397637044, 16469.783740364852)
    CV[19] (-8122.6665431079018, -27830.194389990447, 16608.468243711421)
    CV[20] (-8113.8627697198554, -27818.404707609163, 16747.041781222029)
    CV[21] (-8104.0239370837971, -27805.228912791536, 16885.358834032988)
    CV[22] (-8094.16398365246, -27792.024833798816, 17023.972808873659)
    CV[23] (-8083.2995160253067, -27777.475547155449, 17161.836898134363)
    CV[24] (-8071.38880216917, -27761.525166891355, 17300)
    CV[25] (-8053.2553219650599, -27737.241491852183, 17510.346575602489)
    CV[26] (-8032.6851457503944, -27709.69468511278, 17721.522114203373)
    CV[27] (-8009.9855415851271, -27679.296228508611, 17930.626771556745)
    CV[28] (-7987.2173468862848, -27648.805918040242, 18140.363272528037)
    CV[29] (-7962.2058491349826, -27615.31146045135, 18348.94831998946)
    CV[30] (-7935.5489399251219, -27579.613529689319, 18557.394754524219)
    CV[31] (-7908.9389022650248, -27543.978367544798, 18765.474672170145)
    CV[32] (-7880.6965097727725, -27506.157217170403, 18973.360057843118)
    CV[33] (-7851.1367376291219, -27466.571881488082, 19180.323430790042)
    CV[34] (-7821.4836564530724, -27426.861589857126, 19387.940108910578)
    CV[35] (-7790.6560695612834, -27385.578444322142, 19593.569699094147)
    CV[36] (-7758.1719667552079, -27342.076954944332, 19800)
    CV[37] (-7724.9997658656375, -27297.653990479193, 20010.803033478351)
    CV[38] (-7690.1024675381841, -27250.920840372855, 20222.426181740222)
    CV[39] (-7653.9732100104393, -27202.537896815695, 20431.867072109646)
    CV[40] (-7617.7289473852843, -27154.000942755203, 20641.974645706094)
    CV[41] (-7580.0816702684951, -27103.585124427806, 20850.832647179046)
    CV[42] (-7540.8180737452749, -27051.004791909894, 21059.419457165393)
    CV[43] (-7501.6203235312587, -26998.512638294058, 21267.656460389178)
    CV[44] (-7460.7954927446735, -26943.841559538538, 21475.709094201262)
    CV[45] (-7418.6042276512053, -26887.340603324454, 21682.30543375689)
    CV[46] (-7376.2501655669721, -26830.621635499989, 21889.698935054603)
    CV[47] (-7332.7696136952854, -26772.394114897699, 22094.397457747291)
    CV[48] (-7287.3971576945423, -26711.633027403779, 22300)
    CV[49] (-7240.7138273757118, -26649.116466299754, 22511.542690001574)
    CV[50] (-7192.031773090137, -26583.923289192899, 22724.023877294803)
    CV[51] (-7142.3686542905507, -26517.416307367774, 22933.661511258739)
    CV[52] (-7092.5057250093096, -26450.641746856632, 23144.142583927853)
    CV[53] (-7041.3188337150277, -26382.094186186278, 23353.171877548957)
    CV[54] (-6988.5147394550922, -26311.380928096114, 23561.640109654865)
    CV[55] (-6935.7777154410833, -26240.757487958075, 23769.843551391936)
    CV[56] (-6881.4834558442863, -26168.04865646514, 23977.266858767329)
    CV[57] (-6826.011009266871, -26093.762041256632, 24183.473475438943)
    CV[58] (-6798.2668954678156, -26056.60816697753, 24286.606115011124)
    CV[59] (-6770.2084143830525, -26019.033303846696, 24389.506197995463)
    CV[60] (-6713.660935567088, -25943.307045875532, 24594.964703170932)
    CV[61] (-6685.1703425333599, -25905.153514666032, 24697.529724967299)
    CV[62] (-6656.561818595208, -25866.842054822431, 24800.000000000007)
    CV[63] (-6627.1980883484293, -25827.519251079051, 24905.175279957777)
    CV[64] (-6597.7093016808722, -25788.028976477923, 25010.254022580149)
    CV[65] (-6538.4351480176301, -25708.651258048896, 25220.175340990856)
    CV[66] (-6508.6491940998631, -25668.763028237016, 25325.020163600933)
    CV[67] (-6478.6902838631222, -25628.643181824307, 25429.724879044377)
    CV[68] (-6418.7750237000537, -25548.406917670352, 25639.125361789589)
    CV[69] (-6358.1622793208426, -25467.236608873049, 25847.979961352252)
    CV[70] (-6296.9299465661552, -25385.236570614077, 26056.307987296779)
    CV[71] (-6235.6955969835644, -25303.233831494992, 26264.642875004636)
    CV[72] (-6173.8356554193715, -25220.393323110588, 26472.474816067024)
    CV[73] (-6111.34901392348, -25136.713561735734, 26679.763479647096)
    CV[74] (-6048.8654370935783, -25053.037904446373, 26887.041976725945)
    CV[75] (-5985.7487492333776, -24968.514408664319, 27093.79828312563)
    CV[76] (-5922.008358384066, -24883.15567328468, 27299.999999999993)
    CV[77] (-5791.7402160776946, -24708.705473978334, 27721.42061320442)
    CV[78] (-5658.9604630841177, -24530.891820052886, 28140.2222437366)
    CV[79] (-5523.4924344429219, -24349.478128434297, 28557.037986563388)
    CV[80] (-5429.9846572496663, -24224.256028239666, 28844.74803890437)
    CV[81] (-5335.0609075743578, -24097.137710924464, 29131.927621364575)
    CV[82] (-5238.9866845045799, -23968.478722886481, 29417.736075432593)
