  
  Rhino 物体: 曲线
  开发人员除错信息
  使用 Rhino 的"What"指令。
  名称: ""
  ID:2D417269-F393-4991-8623-0483744FA0F0
  图层索引: 5
  渲染材质索引: -1 (从图层)
  ON_NurbsCurve dim = 3 is_rat = 0
          order = 4 cv_count = 81
  Knot Vector ( 83 knots )
  index                     value  mult       delta
      0                        0     3
      3       1253.6163339078298     3        1254
      6       2507.2302779604433     3        1254
      9       2925.6150105076667     3       418.4
     12       3343.8222003878122     3       418.2
     15       3762.0917782921615     3       418.3
     18       4180.6671203858796     3       418.6
     21       4598.8949684645168     3       418.2
     24       5017.4810783877056     3       418.6
     27       5657.4579293957231     3         640
     30       6297.6126781915154     3       640.2
     33       6937.4086713780707     3       639.8
     36       7577.3756109534588     3         640
     39        8233.810620715305     3       656.4
     42        8890.239787297638     3       656.4
     45       9546.6927674060153     3       656.5
     48       10203.084875889699     3       656.4
     51       10882.301233290074     3       679.2
     54       11561.854381351532     3       679.6
     57       12241.385340171428     3       679.5
     60       12581.099108517879     2       339.7
     62       12920.818517663478     3       339.7
     65       13617.758818783157     3       696.9
     68       14314.594179666779     3       696.8
     71       15011.399348125395     3       696.8
     74       15708.264963531046     3       696.9
     77       17129.476562211592     3        1421
     80       18503.110854328359     3        1374
  Control Points  81 non-rational points
    index               value
    CV[ 0] (-6290.5096704774969, -29795.971483009074, 12299.999999999991)
    CV[ 1] (-6321.4761494870354, -29840.609478095492, 12714.314913369108)
    CV[ 2] (-6344.4254037066503, -29873.690691389929, 13130.258274267944)
    CV[ 3] (-6359.0471984530614, -29894.767921443883, 13547.337430769585)
    CV[ 4] (-6373.6551196465753, -29915.825152853951, 13964.020851327694)
    CV[ 5] (-6379.9760333490894, -29924.936712314986, 14382.543327693249)
    CV[ 6] (-6377.82208102195, -29921.831802862231, 14799.999999999996)
    CV[ 7] (-6377.1024055754378, -29920.794394991761, 14939.480021566485)
    CV[ 8] (-6375.4365171810177, -29918.3930267916, 15078.86266449096)
    CV[ 9] (-6372.825869111859, -29914.629793146356, 15218.273164208713)
    CV[10] (-6370.2168650893955, -29910.868929384633, 15357.595870640831)
    CV[11] (-6366.6657591120238, -29905.750031265143, 15496.868023815035)
    CV[12] (-6362.1719330303185, -29899.272207729162, 15636.042785752474)
    CV[13] (-6357.6768298790648, -29892.792543305033, 15775.257098808988)
    CV[14] (-6352.2400528017524, -29884.955461524169, 15914.324963613537)
    CV[15] (-6345.8601456977703, -29875.758863426217, 16053.3124959672)
    CV[16] (-6339.4776875932093, -29866.558588076125, 16192.355602370739)
    CV[17] (-6332.1498356001721, -29855.995533065616, 16331.351196178084)
    CV[18] (-6323.890110123717, -29844.08918797809, 16470.089717842813)
    CV[19] (-6315.6362513566237, -29832.191299717175, 16608.729696452352)
    CV[20] (-6306.4446537565418, -29818.941666512757, 16747.233708320207)
    CV[21] (-6296.3293373347396, -29804.360498127586, 16885.493559450173)
    CV[22] (-6286.1904886830771, -29789.745408173203, 17024.075057720216)
    CV[23] (-6275.1629714897135, -29773.849307807999, 17161.873028967406)
    CV[24] (-6263.1777006940865, -29756.572611328564, 17299.999999999993)
    CV[25] (-6244.9196072806099, -29730.253678400248, 17510.419537700727)
    CV[26] (-6224.4329570020645, -29700.722294022027, 17721.671417994934)
    CV[27] (-6201.8206579682137, -29668.126799621299, 17930.787351950443)
    CV[28] (-6179.1355940898502, -29635.426415130521, 18140.576206797225)
    CV[29] (-6154.211070367639, -29599.49786261085, 18349.142944831365)
    CV[30] (-6127.7680568341893, -29561.380416070911, 18557.565226662948)
    CV[31] (-6101.3723968585218, -29523.331229402524, 18765.614270529302)
    CV[32] (-6073.4732318718816, -29483.114749214215, 18973.444787439748)
    CV[33] (-6044.3797825858537, -29441.176715320318, 19180.382079400235)
    CV[34] (-6015.1954823241149, -29399.107720285952, 19387.965580570941)
    CV[35] (-5984.9583921117546, -29355.521134807132, 19593.590165000202)
    CV[36] (-5953.1832841993864, -29309.71750597268, 19800.000000000004)
    CV[37] (-5920.7393173562641, -29262.949720972611, 20010.754715964966)
    CV[38] (-5886.6948962082715, -29213.874890622803, 20222.30861333304)
    CV[39] (-5851.527980318926, -29163.181990787805, 20431.714665123691)
    CV[40] (-5816.2519694270486, -29112.33183115632, 20641.770337535643)
    CV[41] (-5779.688856188458, -29059.62632115676, 20850.603952858)
    CV[42] (-5741.6662133479422, -29004.816907927547, 21059.179450789437)
    CV[43] (-5703.7088051588125, -28950.10153005983, 21267.397100110709)
    CV[44] (-5664.2821739417377, -28893.268275946575, 21475.438114915309)
    CV[45] (-5623.6265961948611, -28834.663502729007, 21682.082027345059)
    CV[46] (-5582.818187798398, -28775.838425040169, 21889.502746430131)
    CV[47] (-5541.0109131355848, -28715.573487576654, 22094.298642820886)
    CV[48] (-5497.4664750387119, -28652.80443936777, 22299.999999999993)
    CV[49] (-5452.6638226024552, -28588.221682681349, 22511.645087504829)
    CV[50] (-5406.0479355261423, -28521.025159059114, 22724.127028045499)
    CV[51] (-5358.401138319261, -28452.342584622762, 22933.851509537482)
    CV[52] (-5310.5631316224444, -28383.384382845321, 23144.417628106559)
    CV[53] (-5261.3870364802324, -28312.497334542197, 23353.52037319191)
    CV[54] (-5210.6286391623744, -28239.329407075493, 23561.971800538162)
    CV[55] (-5159.9281185317932, -28166.244908508845, 23770.185543506836)
    CV[56] (-5107.6998231079087, -28090.958131675561, 23977.540368810594)
    CV[57] (-5054.320059316733, -28014.011520047847, 24183.680807656085)
    CV[58] (-5027.6230597270123, -27975.527954120284, 24286.778513985621)
    CV[59] (-5000.6210855359877, -27936.604769121077, 24389.636814462381)
    CV[60] (-4946.2204238041877, -27858.186539191414, 24595.019122478134)
    CV[61] (-4918.8202267982142, -27818.689318375869, 24697.549615925374)
    CV[62] (-4891.3260400714898, -27779.056611937576, 24800)
    CV[63] (-4834.9205742194272, -27697.748468807193, 25010.18121750206)
    CV[64] (-4778.1165938638751, -27615.865869393187, 25220.040665270502)
    CV[65] (-4720.7124258026561, -27533.11810297559, 25429.384851122013)
    CV[66] (-4663.3164060416457, -27450.382082284221, 25638.699321373937)
    CV[67] (-4605.3143556566365, -27366.772472057288, 25847.512050612273)
    CV[68] (-4546.7690644397971, -27282.379783406268, 26055.839924046268)
    CV[69] (-4488.2252097161372, -27197.989165451614, 26264.162685855339)
    CV[70] (-4429.1330397102984, -27112.808154282913, 26472.020373720505)
    CV[71] (-4369.482895528522, -27026.822826662356, 26679.370700638159)
    CV[72] (-4309.8266187965473, -26940.828659007206, 26886.742344960927)
    CV[73] (-4249.6078099647266, -26854.023604680016, 27093.62524132734)
    CV[74] (-4188.8435561947208, -26766.432294722563, 27300)
    CV[75] (-4064.8046418323361, -26587.630938322713, 27721.275658456139)
    CV[76] (-3938.8153056764841, -26406.018060522376, 28139.327867715841)
    CV[77] (-3810.181870520029, -26220.593729758315, 28556.341273610517)
    CV[78] (-3686.1653174457974, -26041.824607022179, 28958.387328914112)
    CV[79] (-3559.4445619990415, -25859.157392669604, 29360.266754269087)
    CV[80] (-3431.2010835499423, -25674.295182177004, 29758.373589709157)
