  
  Rhino 物体: 曲线
  开发人员除错信息
  使用 Rhino 的"What"指令。
  名称: ""
  ID:7CA7921F-3146-476e-A75C-EB8DEA8773B0
  图层索引: 5
  渲染材质索引: -1 (从图层)
  ON_NurbsCurve dim = 3 is_rat = 0
          order = 4 cv_count = 86
  Knot Vector ( 88 knots )
  index                     value  mult       delta
      0                        0     3
      3       1250.9544356893996     3        1251
      6       2502.2390237149666     3        1251
      9       2921.5730501036073     3       419.3
     12       3340.7571896187774     3       419.2
     15       3759.9959934881322     3       419.2
     18       4179.5202444314864     3       419.5
     21       4598.7516724326642     3       419.2
     24       5018.3198342617497     3       419.6
     27       5659.7096878588673     3       641.4
     30       6301.5010750796037     3       641.8
     33       6942.9111638485174     3       641.4
     36       7584.3642950171006     3       641.5
     39       8241.4823422725185     3       657.1
     42       8898.3905447846428     3       656.9
     45       9555.1978467986646     3       656.8
     48       10212.067646823276     3       656.9
     51       10889.981020822859     3       677.9
     54        11568.43027512309     3       678.4
     57       12246.815547113478     3       678.4
     60        12585.95725006073     2       339.1
     62       12925.104158320266     3       339.1
     65       13272.941846543354     2       347.8
     67       13620.780486967431     3       347.8
     70       14316.221676614103     3       695.4
     73       15011.591767664222     3       695.4
     76       15707.161337375395     3       695.6
     79       17128.653079360225     3        1421
     82       18550.758250553936     3        1422
     85       19279.639843620334     3       728.9
  Control Points  86 non-rational points
    index               value
    CV[ 0] (-2141.9140201686437, -33816.068219939407, 12299.999999999993)
    CV[ 1] (-2158.0196480019263, -33843.410150361247, 12715.639683521327)
    CV[ 2] (-2167.8629360284535, -33860.120737438607, 13132.441719756625)
    CV[ 3] (-2171.2704980691024, -33865.905629849382, 13549.239801710057)
    CV[ 4] (-2174.6806892375398, -33871.694985633447, 13966.359467073216)
    CV[ 5] (-2171.6433925290348, -33866.53867902224, 14383.251621966374)
    CV[ 6] (-2162.0623594269809, -33850.273312458608, 14799.999999999996)
    CV[ 7] (-2158.8527478618494, -33844.824473270011, 14939.60920494044)
    CV[ 8] (-2154.9083193473525, -33838.128162445391, 15079.222371319091)
    CV[ 9] (-2150.2334495850646, -33830.191808451942, 15218.670864226824)
    CV[10] (-2145.5591049239215, -33822.256345903341, 15358.103693690109)
    CV[11] (-2140.1532752251228, -33813.079068182356, 15497.407920009453)
    CV[12] (-2134.0153261822056, -33802.658898450289, 15636.620272702414)
    CV[13] (-2127.8765101514077, -33792.237256864872, 15775.852289198683)
    CV[14] (-2121.0084944496425, -33780.577679889808, 15914.921494404882)
    CV[15] (-2113.4093207179221, -33767.676842891276, 16053.873538280004)
    CV[16] (-2105.806926234794, -33754.770538141856, 16192.884474083015)
    CV[17] (-2097.4710117794052, -33740.61896358661, 16331.810003755547)
    CV[18] (-2088.4150304594441, -33725.24495807034, 16470.48239522933)
    CV[19] (-2079.3648711564015, -33709.880836377481, 16609.065635347684)
    CV[20] (-2069.5879987538692, -33693.283000655691, 16747.512004569613)
    CV[21] (-2059.1067781209758, -33675.489418918485, 16885.703113482166)
    CV[22] (-2048.6015268325618, -33657.65504122361, 17024.211057909462)
    CV[23] (-2037.4283847820489, -33638.686810012703, 17161.939017902252)
    CV[24] (-2025.5036177453276, -33618.442572781481, 17299.999999999993)
    CV[25] (-2007.3370556278865, -33587.601870229497, 17510.326407178422)
    CV[26] (-1987.4284255167479, -33553.803723089397, 17721.398789241153)
    CV[27] (-1965.7728583929968, -33517.039865407329, 17930.441930116769)
    CV[28] (-1944.045605550677, -33480.1543095245, 18140.177059693535)
    CV[29] (-1920.469124404972, -33440.129386947701, 18348.746320383612)
    CV[30] (-1895.7044120850794, -33398.08724812662, 18557.163129943001)
    CV[31] (-1870.9817523144538, -33356.1165003676, 18765.226030357866)
    CV[32] (-1845.0809624162598, -33312.145684538627, 18973.086575815436)
    CV[33] (-1818.2337693168838, -33266.5681948969, 19180.1238188307)
    CV[34] (-1791.3138747229125, -33220.867282608917, 19387.721713268569)
    CV[35] (-1763.5703932455692, -33173.768197241647, 19593.504686028024)
    CV[36] (-1734.5467450830354, -33124.495820103504, 19800.000000000004)
    CV[37] (-1704.9399076217139, -33074.233383999926, 20010.64454623542)
    CV[38] (-1674.0045866548239, -33021.715630441373, 20222.004331010601)
    CV[39] (-1642.1554353918095, -32967.646500889736, 20431.375074054053)
    CV[40] (-1610.2256481665004, -32913.440478638644, 20641.275903792834)
    CV[41] (-1577.2442931779872, -32857.449248576158, 20850.052977825337)
    CV[42] (-1543.0850696791501, -32799.45839458167, 21058.586749545149)
    CV[43] (-1508.9812265446976, -32741.561557789457, 21266.78243757684)
    CV[44] (-1473.7026849012886, -32681.670478659657, 21474.73955049584)
    CV[45] (-1437.4203290589001, -32620.075261183367, 21681.500659717778)
    CV[46] (-1401.0219487736458, -32558.283073289229, 21888.922953748315)
    CV[47] (-1363.7899418021993, -32495.075668112811, 22094.134666227554)
    CV[48] (-1325.1814649331532, -32429.531480753321, 22300.000000000004)
    CV[49] (-1285.5167995470383, -32362.194241099009, 22511.497065952164)
    CV[50] (-1244.4278408254875, -32292.439031174868, 22723.531944182152)
    CV[51] (-1202.3886085809231, -32221.07057693533, 22933.241492264911)
    CV[52] (-1160.2022444586376, -32149.452342332981, 23143.684996653199)
    CV[53] (-1116.8487718926142, -32075.852750766855, 23352.83567844157)
    CV[54] (-1072.1710783544784, -32000.005078091606, 23561.273876044004)
    CV[55] (-1027.5351465367667, -31924.228302749012, 23769.517239557092)
    CV[56] (-981.60607343138963, -31846.25620913141, 23976.916028480424)
    CV[57] (-934.68920563273207, -31766.607172891367, 24183.201987416021)
    CV[58] (-911.22624396896379, -31726.774968152633, 24286.364874739418)
    CV[59] (-887.50399059782171, -31686.502573444559, 24389.302253264053)
    CV[60] (-839.70970865931224, -31605.363983576968, 24594.851270715575)
    CV[61] (-815.63641407268472, -31564.495639143246, 24697.469034523372)
    CV[62] (-791.47098958371566, -31523.470889171913, 24800)
    CV[63] (-766.68587424275324, -31481.394112894395, 24905.160238609446)
    CV[64] (-741.80322358526166, -31439.151754506951, 25010.232075927172)
    CV[65] (-691.80576145926409, -31354.272906884951, 25220.159204896147)
    CV[66] (-666.69052870587245, -31311.635702450574, 25325.016406410236)
    CV[67] (-641.43963889639633, -31268.768198034904, 25429.74504291339)
    CV[68] (-590.95522138352726, -31183.062664210775, 25639.130306192099)
    CV[69] (-539.92421033074709, -31096.429198691465, 25848.015012369084)
    CV[70] (-488.34952827479242, -31008.872762959814, 26056.361103419687)
    CV[71] (-436.77912154471795, -30921.323585291244, 26264.689923448932)
    CV[72] (-384.6600355144526, -30832.842935009197, 26472.503128060755)
    CV[73] (-331.97927068421654, -30743.408743342276, 26679.745261418619)
    CV[74] (-279.28231897960734, -30653.947071815677, 26887.051072712602)
    CV[75] (-226.01768372464289, -30563.521664860924, 27093.808458485943)
    CV[76] (-172.21181971300655, -30472.177433805664, 27300)
    CV[77] (-62.216525561386732, -30285.44247938129, 27721.517239375778)
    CV[78] (49.954113702080065, -30095.014521783909, 28140.336273146218)
    CV[79] (164.55451223187853, -29900.46165148585, 28557.064202646801)
    CV[80] (279.05661869790765, -29706.075647999591, 28973.434707140608)
    CV[81] (396.21404110242878, -29507.181812568513, 29388.552893210308)
    CV[82] (515.21155232351043, -29305.164126213196, 29800.000000000007)
    CV[83] (576.36748526147232, -29201.341954200921, 30011.453427993139)
    CV[84] (637.94367608422817, -29096.806325876096, 30221.709880426712)
    CV[85] (700.11222563615206, -28991.265071982038, 30431.284327788871)
