  
  Rhino 物体: 曲线
  开发人员除错信息
  使用 Rhino 的"What"指令。
  名称: ""
  ID:02B704EA-925C-4a08-BD4E-65387B9DCB23
  图层索引: 5
  渲染材质索引: -1 (从图层)
  ON_NurbsCurve dim = 3 is_rat = 0
          order = 4 cv_count = 86
  Knot Vector ( 88 knots )
  index                     value  mult       delta
      0                        0     3
      3       1250.6497780152849     3        1251
      6       2501.6958862979964     3        1251
      9       2921.6586278108098     3         420
     12       3341.4872124034796     3       419.8
     15       3761.3484898524293     3       419.9
     18       4181.4265870977351     3       420.1
     21       4601.2914856053094     3       419.9
     24       5021.4213615856606     3       420.1
     27       5663.2915324829264     3       641.9
     30       6305.5958862322059     3       642.3
     33       6947.5241528087481     3       641.9
     36       7589.3736830448033     3       641.8
     39       8246.2685522573156     3       656.9
     42       8902.8161163620662     3       656.5
     45       9559.2142906717345     3       656.4
     48       10215.751272493255     3       656.5
     51       10891.874497958355     3       676.1
     54       11568.522717283005     3       676.6
     57       12245.065343890645     3       676.5
     60       12583.281990256264     2       338.2
     62       12921.503417043299     3       338.2
     65       13268.442736443532     2       346.9
     67       13615.383406195924     3       346.9
     70       14309.015034008302     3       693.6
     73       15002.611674850994     3       693.6
     76       15696.497609440734     3       693.9
     79       17117.991239918294     3        1421
     82       18540.465843256523     3        1422
     85       19649.192065798503     3        1109
  Control Points  86 non-rational points
    index               value
    CV[ 0] (259.94861608485371, -35725.827182212874, 12299.999999999996)
    CV[ 1] (250.62975047324878, -35743.170434539374, 12716.231631157731)
    CV[ 2] (246.68522619455103, -35750.511551229414, 13133.402229172312)
    CV[ 3] (248.22750667988771, -35747.641227658904, 13550.088423810586)
    CV[ 4] (249.77199928751236, -35744.766787128603, 13967.372279398347)
    CV[ 5] (256.81680783256115, -35731.65576082121, 14383.557631124915)
    CV[ 6] (269.45937169156866, -35708.126805238076, 14799.999999999991)
    CV[ 7] (273.69908209510766, -35700.236320453288, 14939.654825040721)
    CV[ 8] (278.56884276808046, -35691.173255093076, 15079.355628742891)
    CV[ 9] (284.05988586684964, -35680.953926907998, 15218.815734549371)
    CV[10] (289.55152068887196, -35670.733497472393, 15358.290868791393)
    CV[11] (295.66781758003486, -35659.350515389764, 15497.607701256624)
    CV[12] (302.41023750927752, -35646.802261664714, 15636.837749309863)
    CV[13] (309.15275042625586, -35634.25383488107, 15776.069717547161)
    CV[14] (316.51804607042391, -35620.546353075872, 15915.145566752761)
    CV[15] (324.50643467118454, -35605.679238884142, 16054.083030641297)
    CV[16] (332.49774569829617, -35590.806685792471, 16193.071322616172)
    CV[17] (341.11377416342538, -35574.771477007314, 16331.941452076191)
    CV[18] (350.3455387372702, -35557.590327595346, 16470.586241075947)
    CV[19] (359.57203811143933, -35540.41897719651, 16609.151956081521)
    CV[20] (369.4208407704935, -35522.089464061646, 16747.601754813164)
    CV[21] (379.87133810537063, -35502.640142677454, 16885.77894072072)
    CV[22] (390.3439881762053, -35483.149593046663, 17024.249031608477)
    CV[23] (401.38450597110869, -35462.602190185338, 17161.964138548388)
    CV[24] (413.07090297083158, -35440.852747667202, 17299.999999999996)
    CV[25] (430.86670265437874, -35407.733153810281, 17510.198108073615)
    CV[26] (450.15648518541826, -35371.833122658143, 17721.096238645387)
    CV[27] (470.90348149221393, -35333.221084781166, 17930.085246525279)
    CV[28] (491.71692713629818, -35294.485378673358, 18139.743613037601)
    CV[29] (514.08101750963885, -35252.863782380082, 18348.328573069979)
    CV[30] (537.47029614097664, -35209.33421795188, 18556.765645465457)
    CV[31] (560.82135290499616, -35165.875787878111, 18764.862097944853)
    CV[32] (585.19093814941436, -35120.521784118275, 18972.782114843805)
    CV[33] (610.39756307666562, -35073.609973750674, 19179.909241876296)
    CV[34] (635.66371195831425, -35026.587383916602, 19387.525487372655)
    CV[35] (661.66042985542765, -34978.205139023092, 19593.437302143164)
    CV[36] (688.79349571813054, -34927.708047718072, 19800.000000000007)
    CV[37] (716.45303762117976, -34876.231136852162, 20010.570734095741)
    CV[38] (745.29063054581604, -34822.56176641312, 20221.796292602889)
    CV[39] (774.94125873133328, -34767.379263768133, 20431.153946026665)
    CV[40] (804.65502391219718, -34712.079257460464, 20640.957398207433)
    CV[41] (835.30146277812116, -34655.043461011308, 20849.705550803606)
    CV[42] (866.99205118548957, -34596.064407762613, 21058.213682148595)
    CV[43] (898.63509621517858, -34537.173837042792, 21266.409001982774)
    CV[44] (931.31133464239599, -34476.360399898869, 21474.313539053175)
    CV[45] (964.89025802626793, -34413.866984351218, 21681.150859887864)
    CV[46] (998.56144618750557, -34351.201855702275, 21888.556507441623)
    CV[47] (1033.0051523948105, -34287.099001051261, 22094.056394748288)
    CV[48] (1068.6302640789945, -34220.797443882206, 22300.000000000011)
    CV[49] (1105.1807934150943, -34152.773600706088, 22511.293310518322)
    CV[50] (1142.9559867903097, -34082.470546912416, 22722.944345692697)
    CV[51] (1181.5813384830303, -34010.585271544514, 22932.584004749871)
    CV[52] (1220.322734876901, -33938.484026484904, 23142.853498113247)
    CV[53] (1260.0824044646379, -33864.48768285058, 23351.984451911499)
    CV[54] (1300.9811479033256, -33788.371419685391, 23560.422615623243)
    CV[55] (1341.8449320289221, -33712.320218965928, 23768.6826111466)
    CV[56] (1383.8297753660322, -33634.182625590052, 23976.16913255243)
    CV[57] (1426.688390564223, -33554.418863698156, 24182.630165834198)
    CV[58] (1448.1208573772992, -33514.531103169058, 24285.875901225845)
    CV[59] (1469.7819713445358, -33474.217809591879, 24388.913008002866)
    CV[60] (1513.4360411868361, -33392.973634613023, 24594.663770530264)
    CV[61] (1535.4301339368926, -33352.040637384096, 24697.383346442792)
    CV[62] (1557.5284354873536, -33310.913698145967, 24800)
    CV[63] (1580.1967442704129, -33268.725923858285, 24905.263564433102)
    CV[64] (1602.9753280065429, -33226.332917902277, 25010.422274728269)
    CV[65] (1648.7799040363061, -33141.086456272518, 25220.496236282564)
    CV[66] (1671.8064216886069, -33098.232022858741, 25325.41401225423)
    CV[67] (1694.9713796386404, -33055.119939521057, 25430.19315758592)
    CV[68] (1741.2843961921972, -32968.927224059051, 25639.675009557388)
    CV[69] (1788.1557379340777, -32881.695414889175, 25848.619474521518)
    CV[70] (1835.5990242004386, -32793.399165194234, 26056.963002161217)
    CV[71] (1883.0410208551837, -32705.105315583227, 26265.300866571106)
    CV[72] (1931.0605423446646, -32615.736639984709, 26473.066382644851)
    CV[73] (1979.6672992373781, -32525.275066151797, 26680.195561900513)
    CV[74] (2028.2955810218964, -32434.773432547081, 26887.416465711744)
    CV[75] (2077.5191455248764, -32343.163923925993, 27094.028826417965)
    CV[76] (2127.3162255403777, -32250.487051028904, 27300.000000000007)
    CV[77] (2229.2911737482923, -32060.702442959308, 27721.789786706675)
    CV[78] (2333.8100965678318, -31866.183267889784, 28141.478342773797)
    CV[79] (2440.6403653901421, -31667.362468715914, 28557.869705231642)
    CV[80] (2547.5600153160017, -31468.375323218715, 28974.609447599931)
    CV[81] (2657.0061635304924, -31264.686135740383, 29388.870006401881)
    CV[82] (2768.684503137365, -31056.842638051719, 29800.000000000015)
    CV[83] (2855.8368569726508, -30894.644219659302, 30120.840610636722)
    CV[84] (2944.2103785085333, -30730.173097651757, 30439.26569446555)
    CV[85] (3034.1233136015198, -30562.836987686613, 30756.230534300725)
