  
  Rhino 物体: 曲线
  开发人员除错信息
  使用 Rhino 的"What"指令。
  名称: ""
  ID:FE4B8C6A-9FB8-4da2-AE8E-6BEBB5E7D628
  图层索引: 5
  渲染材质索引: -1 (从图层)
  ON_NurbsCurve dim = 3 is_rat = 0
          order = 4 cv_count = 91
  Knot Vector ( 93 knots )
  index                     value  mult       delta
      0                        0     3
      3       1251.4442000744314     3        1251
      6       2502.7739244445538     3        1251
      9       2923.6045821542371     3       420.8
     12        3344.269827704426     3       420.7
     15       3764.8882478555342     3       420.6
     18       4185.5759360743541     3       420.7
     21       4606.1974389543102     3       420.6
     24       4816.5798709146211     2       210.4
     26       5026.9651579806914     3       210.4
     29       5669.3294095908577     3       642.4
     32       6312.1400027907339     3       642.8
     35       6954.7077611029181     3       642.6
     38       7597.0529461443266     3       642.3
     41       8253.3192006060344     3       656.3
     44       8909.1410378759247     3       655.8
     47       9564.8327546081637     3       655.7
     50       10220.778591880609     3       655.9
     53       10893.679709982041     3       672.9
     56       11567.032223501274     3       673.4
     59       12240.292843488132     3       673.3
     62        12576.87730053865     2       336.6
     64       12913.465750211573     3       336.6
     67       13258.536043089951     2       345.1
     69       13603.608540316502     3       345.1
     72       14293.455774711976     3       689.8
     75       14983.172049462171     3       689.7
     78       15673.030712580121     3       689.9
     81       17087.017069682432     3        1414
     84       18501.161682941554     3        1414
     87       19955.843273006016     3        1455
     90         20215.8409700265     3         260
  Control Points  91 non-rational points
    index               value
    CV[ 0] (4862.077053303522, -38655.444611289815, 12299.999999999998)
    CV[ 1] (4859.4615030445175, -38661.25091756889, 12716.850923761946)
    CV[ 2] (4861.0636259965604, -38657.694336492204, 13134.476915586454)
    CV[ 3] (4866.9196142204028, -38644.694524663995, 13551.133462531543)
    CV[ 4] (4872.7860314212285, -38631.671561365336, 13968.532036504947)
    CV[ 5] (4882.9059184368816, -38609.206245197085, 14383.845216513329)
    CV[ 6] (4897.3758565025782, -38577.08417376702, 14799.999999999985)
    CV[ 7] (4902.2358195442985, -38566.295455856489, 14939.772323709909)
    CV[ 8] (4907.5794311743384, -38554.433077890848, 15079.461309066726)
    CV[ 9] (4913.4088709399002, -38541.492201454719, 15219.006158394441)
    CV[10] (4919.2363284619205, -38528.55572543609, 15358.503556871363)
    CV[11] (4925.5522297911102, -38514.534944371204, 15497.896542225912)
    CV[12] (4932.3525036466363, -38499.438896168409, 15637.125020636066)
    CV[13] (4939.1523900957118, -38484.343707976048, 15776.345567305272)
    CV[14] (4946.4382155543535, -38468.169775181952, 15915.441946186334)
    CV[15] (4954.2074124792698, -38450.922797520863, 16054.353864927052)
    CV[16] (4961.9783081242722, -38433.672048841014, 16193.296156493785)
    CV[17] (4970.2351107196173, -38415.342626728256, 16332.093946715911)
    CV[18] (4978.9741125022647, -38395.942762111343, 16470.68716908474)
    CV[19] (4987.7122133409803, -38376.5448975158, 16609.266103240141)
    CV[20] (4996.9343657041272, -38356.072478380127, 16747.680692905698)
    CV[21] (5006.6364104712466, -38334.534737609429, 16885.871238327392)
    CV[22] (5011.4895012796433, -38323.761275491197, 16954.995972534583)
    CV[23] (5016.4634914526678, -38312.719426735181, 17024.072478221129)
    CV[24] (5026.6520221573683, -38290.101727227564, 17162.115088944516)
    CV[25] (5031.8669265596991, -38278.525068713061, 17231.086149593306)
    CV[26] (5037.1999293159588, -38266.68624157396, 17299.999999999985)
    CV[27] (5053.4524686549084, -38230.606942049984, 17510.017717207844)
    CV[28] (5070.8942711107729, -38191.887576299247, 17720.718129549936)
    CV[29] (5089.381896334985, -38150.846570088434, 17929.637765148284)
    CV[30] (5107.9271180629585, -38109.677704380258, 18139.208270743762)
    CV[31] (5127.5996839417548, -38066.006227453232, 18347.835110919266)
    CV[32] (5148.1320769703489, -38020.426005029323, 18556.301230593803)
    CV[33] (5168.6359876076249, -37974.909011169642, 18764.478167532146)
    CV[34] (5189.9963845215998, -37927.490688276353, 18972.485293859012)
    CV[35] (5212.0741943642042, -37878.47976773449, 19179.705245954501)
    CV[36] (5234.1912821298938, -37829.381653436496, 19387.293856417753)
    CV[37] (5256.9544327641488, -37778.849332750193, 19593.398633487646)
    CV[38] (5280.5794735931267, -37726.40368677707, 19800)
    CV[39] (5304.6373254250984, -37672.997236003619, 20010.386305776923)
    CV[40] (5329.590366194353, -37617.603539475807, 20221.300069508234)
    CV[41] (5355.192901439621, -37560.768018673625, 20430.602919423247)
    CV[42] (5380.8353640938967, -37503.843862310023, 20640.232179219725)
    CV[43] (5407.2139877351447, -37445.28548915156, 20848.937617772979)
    CV[44] (5434.4138792094109, -37384.903969005485, 21057.399981497121)
    CV[45] (5461.5829340107994, -37324.590903734912, 21265.626010244578)
    CV[46] (5489.5548801851919, -37262.495485705316, 21473.482954077059)
    CV[47] (5518.2634915619074, -37198.76473156429, 21680.480799899298)
    CV[48] (5547.027940861889, -37134.910021829848, 21887.881254182081)
    CV[49] (5576.4610268631413, -37069.570993656613, 22093.907977479237)
    CV[50] (5606.7704380351179, -37002.286595738042, 22300.000000000007)
    CV[51] (5637.7904479581803, -36933.424727084159, 22510.923813312791)
    CV[52] (5669.72276135021, -36862.537619824347, 22721.877996340747)
    CV[53] (5702.3289616286702, -36790.154539146853, 22931.378676452696)
    CV[54] (5735.0026121555284, -36717.621724470002, 23141.312736498287)
    CV[55] (5768.4431130254588, -36643.386565153894, 23350.366749625144)
    CV[56] (5802.7128283014335, -36567.310618112184, 23558.786987422449)
    CV[57] (5836.9622833702715, -36491.27964706262, 23767.084007470319)
    CV[58] (5872.037393934087, -36413.415788777063, 23974.732324252149)
    CV[59] (5907.7925833550635, -36334.042211408487, 24181.523174163867)
    CV[60] (5925.6718880601084, -36294.351626677038, 24284.928488907288)
    CV[61] (5943.7276751209229, -36254.269265642732, 24388.155774199204)
    CV[62] (5980.1334745121039, -36173.451387694491, 24594.294655117148)
    CV[63] (5998.4844174491673, -36132.713804910301, 24697.211777372871)
    CV[64] (6016.95340918076, -36091.714163519304, 24800)
    CV[65] (6035.8881542164381, -36049.680588131167, 24905.380348662238)
    CV[66] (6054.9476105606063, -36007.370163903644, 25010.629657660276)
    CV[67] (6093.32945104385, -35922.165637386504, 25220.839377696353)
    CV[68] (6112.6525272524868, -35879.269998759417, 25325.803635464043)
    CV[69] (6132.1152947426453, -35836.064256985876, 25430.611219421633)
    CV[70] (6171.0238987606108, -35749.690358781569, 25640.135213599129)
    CV[71] (6210.496009643146, -35662.065521722317, 25849.054997039635)
    CV[72] (6250.4809852046255, -35573.302167291651, 26057.366627064788)
    CV[73] (6290.4596355431568, -35484.552854335278, 26265.645304274934)
    CV[74] (6330.9565238018085, -35394.653095854395, 26473.349311115049)
    CV[75] (6371.9636041467184, -35303.620752937859, 26680.432352502386)
    CV[76] (6412.9802619484508, -35212.567148855531, 26887.563759412729)
    CV[77] (6454.5142624528416, -35120.365086557744, 27094.103185277767)
    CV[78] (6496.5605626017623, -35027.02576121845, 27300.000000000007)
    CV[79] (6582.6833171737835, -34835.840335160923, 27721.735105792399)
    CV[80] (6671.1480105833643, -34639.455997657933, 28141.736883183468)
    CV[81] (6761.5459575805007, -34438.77999632404, 28558.134200476379)
    CV[82] (6852.0188003563762, -34237.937732526305, 28974.876507919857)
    CV[83] (6944.6129774291594, -34032.386281204541, 29388.860041915312)
    CV[84] (7039.3111087481757, -33822.164224640641, 29800.000000000007)
    CV[85] (7136.7838121941368, -33605.782846340539, 30223.185997981007)
    CV[86] (7236.2944000643965, -33384.877532364539, 30642.52932973416)
    CV[87] (7338.1831075732589, -33158.692988542927, 31059.503404604249)
    CV[88] (7356.3336541139788, -33118.400269263228, 31133.783543564154)
    CV[89] (7374.5795978159831, -33077.895776137979, 31208.070025115481)
    CV[90] (7392.9112309975299, -33037.201059421583, 31282.324220687511)
