  
  Rhino 物体: 曲线
  开发人员除错信息
  使用 Rhino 的"What"指令。
  名称: ""
  ID:01830335-A973-4d0b-8D7E-168F769CA7E0
  图层索引: 5
  渲染材质索引: -1 (从图层)
  ON_NurbsCurve dim = 3 is_rat = 0
          order = 4 cv_count = 101
  Knot Vector ( 103 knots )
  index                     value  mult       delta
      0                        0     3
      3       1251.7737654281191     3        1252
      6       2503.1587858856078     3        1251
      9       2924.2025966661417     3         421
     12       3345.0425827941008     3       420.8
     15       3765.7877985134492     3       420.7
     18       4186.5408375571478     3       420.8
     21       4607.2826929755593     3       420.7
     24       4817.7072815058227     2       210.4
     26       5028.1346180101036     3       210.4
     29       5670.6252332773474     3       642.5
     32       6313.5130543759278     3       642.9
     35        6956.263723225662     3       642.8
     38       7277.5095280859532     2       321.2
     40       7598.7603074701101     3       321.3
     43       7926.6829420480117     2       327.9
     45       8254.6096376712012     3       327.9
     48       8582.3392912552245     2       327.7
     50       8910.0734008580348     3       327.7
     53        9565.454835841505     3       655.4
     56       9893.2518920869206     2       327.8
     58       10221.053407995127     3       327.8
     61       10556.660087379434     2       335.6
     63       10892.271461468943     3       335.6
     66        11563.82834429309     3       671.6
     69        12235.31695697055     3       671.5
     72       12571.029661971683     2       335.7
     74       12906.746026099347     3       335.7
     77       13250.564610866253     2       343.8
     79       13594.385772777177     3       343.8
     82       14281.782629785832     3       687.4
     85       14969.028820614778     3       687.2
     88       15656.340581441053     3       687.3
     91       17061.082323166764     3        1405
     94       18465.659716734062     3        1405
     97       19905.021028352545     3        1439
    100       20475.497043325344     3       570.5
  Control Points  101 non-rational points
    index               value
    CV[ 0] (7613.5566937578824, -40019.329504282548, 12300.000000000002)
    CV[ 1] (7612.1148597347374, -40022.898168723899, 12716.973337100841)
    CV[ 2] (7614.4330088668166, -40017.160548273394, 13134.718315421282)
    CV[ 3] (7620.5359407253054, -40002.05526183833, 13551.391798280034)
    CV[ 4] (7626.6497231676676, -39986.923119265724, 13968.806097303459)
    CV[ 5] (7636.5433884637123, -39962.435438319131, 14383.885083497706)
    CV[ 6] (7650.3051506379979, -39928.373881625739, 14799.999999999985)
    CV[ 7] (7654.9286137739955, -39916.930408781773, 14939.799827407554)
    CV[ 8] (7659.9811104367091, -39904.425040694405, 15079.514091978179)
    CV[ 9] (7665.4665471041908, -39890.848108491162, 15219.084499276494)
    CV[10] (7670.9496033726673, -39877.277067982213, 15358.594340155152)
    CV[11] (7676.8679815018295, -39862.628568057109, 15497.998059331054)
    CV[12] (7683.217821204792, -39846.912163261179, 15637.238392792126)
    CV[13] (7689.5665603038633, -39831.198482555475, 15776.454592029253)
    CV[14] (7696.3479902231256, -39814.413854487349, 15915.54596075404)
    CV[15] (7703.5602371527366, -39796.56291689894, 16054.454839833143)
    CV[16] (7710.7729889498023, -39778.710729719729, 16193.373442729653)
    CV[17] (7718.4188033719038, -39759.78667492883, 16332.147694191679)
    CV[18] (7726.4947390091947, -39739.798032771083, 16470.720058018833)
    CV[19] (7734.5708780691257, -39719.808887124636, 16609.295912309171)
    CV[20] (7743.0787123051014, -39698.751258421515, 16747.708396579143)
    CV[21] (7752.0156372230758, -39676.631593010716, 16885.899839976748)
    CV[22] (7756.4856056524459, -39665.568032897812, 16955.018848457414)
    CV[23] (7761.063673439231, -39654.23691748608, 17024.090053335574)
    CV[24] (7770.4353750881382, -39631.041141902606, 17162.123206879456)
    CV[25] (7775.2293321571633, -39619.175681765715, 17231.089934089687)
    CV[26] (7780.1293237292302, -39607.047777023909, 17299.999999999993)
    CV[27] (7795.0613343643472, -39570.089753745116, 17509.993389152973)
    CV[28] (7811.0654882945919, -39530.478082687223, 17720.710396808769)
    CV[29] (7827.9681639471391, -39488.642492323292, 17929.636815238315)
    CV[30] (7844.9235133061757, -39446.676529960692, 18139.214309809202)
    CV[31] (7862.8538056506386, -39402.297499028064, 18347.865982305153)
    CV[32] (7881.6151896642223, -39355.861444027832, 18556.341791073981)
    CV[33] (7900.3531807033287, -39309.48328867129, 18764.557657971258)
    CV[34] (7919.9179208052728, -39261.058857574884, 18972.572951862196)
    CV[35] (7940.1670959693074, -39210.94039025149, 19179.777435035932)
    CV[36] (7950.2928398410068, -39185.878294672395, 19283.391508630983)
    CV[37] (7960.5979760522705, -39160.372187471308, 19386.884241776006)
    CV[38] (7981.5428672689395, -39108.531762489496, 19593.619007334364)
    CV[39] (7992.1833898674558, -39082.195544849143, 19696.869004213182)
    CV[40] (8002.9771281162166, -39055.480105166513, 19800)
    CV[41] (8013.9953414313959, -39028.209070197161, 19905.275789054522)
    CV[42] (8025.1735420943696, -39000.542052645927, 20010.435331400098)
    CV[43] (8047.8529423428299, -38944.40856715534, 20220.498384677539)
    CV[44] (8059.3549061976355, -38915.940207583051, 20325.409014768622)
    CV[45] (8071.0232857882838, -38887.0599546101, 20430.182907350412)
    CV[46] (8082.6849524413865, -38858.196316740643, 20534.896522445353)
    CV[47] (8094.513994543473, -38828.918410097147, 20639.480661754649)
    CV[48] (8118.504158287652, -38769.540671105038, 20848.368882194754)
    CV[49] (8130.6661507783565, -38739.438683330482, 20952.680506473076)
    CV[50] (8142.9925410039586, -38708.929796882876, 21056.848596760326)
    CV[51] (8167.6419536611793, -38647.920359570286, 21265.156316718094)
    CV[52] (8192.9527914780883, -38585.273837537752, 21472.932964141575)
    CV[53] (8218.9179630999461, -38521.007782504181, 21680.086084477669)
    CV[54] (8231.9058648150476, -38488.861597662835, 21783.705055539562)
    CV[55] (8245.0592682463594, -38456.305781698808, 21887.179602392611)
    CV[56] (8271.6957458973557, -38390.378185935158, 22093.817485808362)
    CV[57] (8285.1797891012193, -38357.004007815536, 22196.988313727099)
    CV[58] (8298.8270981311343, -38323.225732595572, 22300)
    CV[59] (8312.799739959406, -38288.642230442085, 22405.46734108992)
    CV[60] (8326.9442743477885, -38253.633279272166, 22510.775963911477)
    CV[61] (8355.5678330877508, -38182.787485220462, 22721.059883546361)
    CV[62] (8370.0479187636847, -38146.948015468734, 22826.042898273165)
    CV[63] (8384.6931617801347, -38110.699766954058, 22930.85634548587)
    CV[64] (8413.9980995159658, -38038.167500704716, 23140.586668225904)
    CV[65] (8443.9713918324414, -37963.980998816667, 23349.679806013959)
    CV[66] (8474.6114558160498, -37888.14417913837, 23558.032920957321)
    CV[67] (8505.2501243569805, -37812.310813301905, 23766.376546859508)
    CV[68] (8536.5632596431806, -37734.808083688418, 23974.039647797897)
    CV[69] (8568.4785544266852, -37655.814957017035, 24181.000619323193)
    CV[70] (8584.4360164494956, -37616.31885248558, 24284.479903024676)
    CV[71] (8600.5458402089535, -37576.445639422156, 24387.794445395833)
    CV[72] (8633.0344420105084, -37496.033528085092, 24594.114722767736)
    CV[73] (8649.4140429616873, -37455.492593040006, 24697.125796371012)
    CV[74] (8665.9105533225302, -37414.662297051538, 24800)
    CV[75] (8682.8054980641082, -37372.845841363742, 24905.358887887665)
    CV[76] (8699.8237152439779, -37330.724275684042, 25010.579001589551)
    CV[77] (8734.1192998326951, -37245.839724998776, 25220.712811053538)
    CV[78] (8751.3973945368216, -37203.074939874219, 25325.630995643667)
    CV[79] (8768.8125348038011, -37159.970955078177, 25430.383465996332)
    CV[80] (8803.6303311621323, -37073.793884905121, 25639.813314097373)
    CV[81] (8839.0005713707469, -36986.249468218724, 25848.604235342606)
    CV[82] (8874.7891874832894, -36897.669534831031, 26056.857034916247)
    CV[83] (8910.5712433272201, -36809.105838677962, 26265.07166049903)
    CV[84] (8946.7765423340534, -36719.494578934879, 26472.779621220274)
    CV[85] (8983.3881670301889, -36628.877627818336, 26679.958578410457)
    CV[86] (9020.004073215583, -36538.250079644, 26887.161763820139)
    CV[87] (9057.030557631464, -36446.606314687415, 27093.859729846019)
    CV[88] (9094.4746960975863, -36353.928819680106, 27300)
    CV[89] (9171.0189810807096, -36164.475065902872, 27721.397319621596)
    CV[90] (9249.276762167452, -35970.78026043922, 28140.288763907287)
    CV[91] (9329.2746128227955, -35772.778631655216, 28557.089356917655)
    CV[92] (9409.1759594846208, -35575.015858637256, 28973.38714989783)
    CV[93] (9490.9868303015846, -35372.526847478875, 29388.503795362307)
    CV[94] (9574.3060339353251, -35166.304581588971, 29800.000000000015)
    CV[95] (9659.8996705881018, -34954.45289642542, 30222.72915591691)
    CV[96] (9746.9223163322677, -34739.064289640548, 30640.833371440425)
    CV[97] (9836.1052262797748, -34518.328841317292, 31058.240706321143)
    CV[98] (9871.2649654890738, -34431.305432887792, 31222.800632063576)
    CV[99] (9906.8523023816597, -34343.2236830521, 31387.681839098215)
    CV[100] (9942.7457704321278, -34254.384232010867, 31552.28959755773)
