  
  Rhino 物体: 曲线
  开发人员除错信息
  使用 Rhino 的"What"指令。
  名称: ""
  ID:CB65BADC-407A-44db-916C-DD44000B60BD
  图层索引: 5
  渲染材质索引: -1 (从图层)
  ON_NurbsCurve dim = 3 is_rat = 0
          order = 4 cv_count = 103
  Knot Vector ( 105 knots )
  index                     value  mult       delta
      0                        0     3
      3       1251.7482137374759     3        1252
      6        2503.000933268032     3        1251
      9        2924.017754961696     3         421
     12       3344.7940420311725     3       420.8
     15       3765.4401695000943     3       420.6
     18       4186.0608173667915     3       420.6
     21         4606.71342434489     3       420.7
     24       4817.0900689608507     2       210.4
     26        5027.469483733862     3       210.4
     29       5669.9313591182545     3       642.5
     32       6312.7370395225607     3       642.8
     35        6955.534230106683     3       642.8
     38       7276.8142698760921     2       321.3
     40       7598.0997199217218     3       321.3
     43       7925.7919603508044     2       327.7
     45       8253.4874567074658     3       327.7
     48       8581.0460531834215     2       327.6
     50       8908.6085503470003     3       327.6
     53       9563.6956667685881     3       655.1
     56       9891.3020703039438     2       327.6
     58       10218.912303195933     3       327.6
     61       10553.709741554836     2       334.8
     63       10888.511179833544     3       334.8
     66       11558.283057870145     3       669.8
     69       12228.009069955329     3       669.7
     72       12897.729411500008     3       669.7
     75       13582.653414939949     3       684.9
     78       13925.032997440705     2       342.4
     80       14267.415740849066     3       342.4
     83       14952.005106594226     3       684.6
     86       15636.538718281334     3       684.5
     89       16332.913126843365     2       696.4
     91         17029.2972267609     3       696.4
     94       17725.320856377341     2         696
     96       18421.353589077873     3         696
     99       19839.421098053193     3        1418
    102       20691.375016982507     3         852
  Control Points  103 non-rational points
    index               value
    CV[ 0] (10460.36926427893, -41172.028392412329, 12300.000000000004)
    CV[ 1] (10458.821590696911, -41176.339020386185, 12716.954383353441)
    CV[ 2] (10460.669713239795, -41171.191572742842, 13134.706926205019)
    CV[ 3] (10465.938738466699, -41156.51612192305, 13551.395620105424)
    CV[ 4] (10471.216874054828, -41141.815296645487, 13968.804785887545)
    CV[ 5] (10479.91154060912, -41117.598644434263, 14383.85806428469)
    CV[ 6] (10492.096760754823, -41083.659995201095, 14799.999999999989)
    CV[ 7] (10496.190613163852, -41072.257671791172, 14939.810659606877)
    CV[ 8] (10500.671602370317, -41059.77708308804, 15079.537639840608)
    CV[ 9] (10505.544272190378, -41046.205573515399, 15219.122237222196)
    CV[10] (10510.414402623594, -41032.641136720966, 15358.63409023498)
    CV[11] (10515.678316615415, -41017.979921870043, 15498.041445931211)
    CV[12] (10521.332639133652, -41002.23132920589, 15637.286668685556)
    CV[13] (10526.985507443904, -40986.486786846464, 15776.496079631454)
    CV[14] (10533.029789458129, -40969.652067022427, 15915.582174917474)
    CV[15] (10539.46405951061, -40951.731140541699, 16054.486844255374)
    CV[16] (10545.898272306704, -40933.810373533219, 16193.390277527782)
    CV[17] (10552.724497732535, -40914.797760913694, 16332.150686653944)
    CV[18] (10559.940469930316, -40894.699613619807, 16470.709914983097)
    CV[19] (10567.157367083362, -40874.598890112124, 16609.286904063625)
    CV[20] (10574.765401684728, -40853.408758575562, 16747.701527361984)
    CV[21] (10582.761642958569, -40831.137381896959, 16885.895962297844)
    CV[22] (10586.761050528563, -40819.998109152155, 16955.015421089272)
    CV[23] (10590.858270531646, -40808.586406215887, 17024.087349362351)
    CV[24] (10599.248584994211, -40785.2174447941, 17162.12193748858)
    CV[25] (10603.541973429281, -40773.259367518738, 17231.089435335864)
    CV[26] (10607.932066953224, -40761.03194426102, 17300)
    CV[27] (10621.311559624693, -40723.766970525205, 17510.015661370759)
    CV[28] (10635.671000281774, -40683.77261557569, 17720.806213941476)
    CV[29] (10650.827748827414, -40641.557574217804, 17929.761723848398)
    CV[30] (10666.032250386355, -40599.209529701271, 18139.375571208962)
    CV[31] (10682.105066604012, -40554.443028540227, 18348.052987523602)
    CV[32] (10699.000698974578, -40507.384794569836, 18556.528539182291)
    CV[33] (10715.878059534685, -40460.377451806875, 18764.778634599825)
    CV[34] (10733.572280717979, -40411.094963758798, 18972.77581321069)
    CV[35] (10751.924473140571, -40359.979874015458, 19179.929413879072)
    CV[36] (10761.101941779254, -40334.418506616894, 19283.521705728843)
    CV[37] (10770.451398513806, -40308.378112693717, 19386.984309923413)
    CV[38] (10789.446379033336, -40255.47270980935, 19593.661338941012)
    CV[39] (10799.092573259844, -40228.605833513815, 19696.88381456471)
    CV[40] (10808.861657046629, -40201.396681442318, 19800.000000000007)
    CV[41] (10818.825815573338, -40173.644201216433, 19905.175269326384)
    CV[42] (10828.918149955352, -40145.534721663404, 20010.246699008985)
    CV[43] (10849.369357365715, -40088.573390936872, 20220.156092150009)
    CV[44] (10859.728791071222, -40059.719978148125, 20324.999947017481)
    CV[45] (10870.22896087662, -40030.474582853421, 20429.716255251977)
    CV[46] (10880.724969052662, -40001.24077865656, 20534.391060304115)
    CV[47] (10891.362479065237, -39971.612859200504, 20638.944531499947)
    CV[48] (10912.916204433752, -39911.58076160989, 20847.79233476377)
    CV[49] (10923.83309842497, -39881.174693319517, 20952.093221843443)
    CV[50] (10934.887038335815, -39850.386920526507, 21056.262524004327)
    CV[51] (10956.993565455999, -39788.815142526255, 21264.58838083758)
    CV[52] (10979.651423395864, -39725.707781001278, 21472.424752036761)
    CV[53] (11002.857947122717, -39661.0722586825, 21679.689713374806)
    CV[54] (11014.464280645805, -39628.74594224232, 21783.349628028704)
    CV[55] (11026.209164341859, -39596.033731606949, 21886.876601809912)
    CV[56] (11049.974064679516, -39529.843001609726, 22093.646429781729)
    CV[57] (11061.994822432027, -39496.362418083045, 22196.895709573913)
    CV[58] (11074.151859328987, -39462.502265699499, 22300)
    CV[59] (11086.575890936723, -39427.898471450819, 22405.36868268183)
    CV[60] (11099.142887830101, -39392.896485899582, 22510.59277674837)
    CV[61] (11124.556511604702, -39322.113680770366, 22720.737265583921)
    CV[62] (11137.403943655578, -39286.330618609158, 22825.664269056157)
    CV[63] (11150.389603716358, -39250.162559551201, 22930.436853915679)
    CV[64] (11176.367383396666, -39177.808450073957, 23140.034141483491)
    CV[65] (11202.903495282444, -39103.899256597382, 23349.04943526466)
    CV[66] (11229.993636285686, -39028.446964214279, 23557.398710739522)
    CV[67] (11257.083206022193, -38952.996262940826, 23765.743592622988)
    CV[68] (11284.732990840532, -38875.98523342298, 23973.473622773741)
    CV[69] (11312.903556515861, -38797.523709074398, 24180.548412890414)
    CV[70] (11341.075278428581, -38719.058964337935, 24387.631702219278)
    CV[71] (11369.774557847793, -38639.124850238491, 24594.105311752537)
    CV[72] (11398.916832787396, -38557.956891415815, 24800)
    CV[73] (11428.721832189873, -38474.943092073656, 25010.576939271465)
    CV[74] (11458.99564750633, -38390.623532255369, 25220.59245730699)
    CV[75] (11489.790081475832, -38304.853929381723, 25429.909973645379)
    CV[76] (11505.184478803691, -38261.976981339845, 25534.549565897167)
    CV[77] (11520.710185553304, -38218.734306265324, 25639.022198335406)
    CV[78] (11551.968597026031, -38131.672419005699, 25847.689830461393)
    CV[79] (11567.701918813897, -38087.85148815289, 25951.888956095634)
    CV[80] (11583.51184944289, -38043.817184003914, 26055.983968911798)
    CV[81] (11615.123752761772, -37955.770740402259, 26264.121598250174)
    CV[82] (11647.044152140777, -37866.865064103222, 26471.856078427882)
    CV[83] (11679.246472118375, -37777.174173898064, 26679.196172482712)
    CV[84] (11711.446620134406, -37687.48933310694, 26886.522281994934)
    CV[85] (11743.930064765185, -37597.015445887264, 27093.470030326967)
    CV[86] (11776.706921498673, -37505.724338271459, 27300.000000000007)
    CV[87] (11810.051372190297, -37412.852350538458, 27510.106431074266)
    CV[88] (11843.703046407256, -37319.12467441101, 27719.793567436562)
    CV[89] (11911.609729198692, -37129.988896781317, 28138.291405724172)
    CV[90] (11945.867220760665, -37034.573879586089, 28347.11738909292)
    CV[91] (11980.417189733565, -36938.344245326953, 28555.507599435681)
    CV[92] (12014.950208701961, -36842.161820740723, 28763.79557480953)
    CV[93] (12049.776767617856, -36745.161819681111, 28971.664764449364)
    CV[94] (12120.02267442771, -36549.510763501698, 29386.505928551607)
    CV[95] (12155.444510385807, -36450.852778549277, 29593.492979897725)
    CV[96] (12191.175578572238, -36351.33351050115, 29800.000000000029)
    CV[97] (12264.195649418361, -36147.955767481748, 30222.018092473929)
    CV[98] (12337.850780788465, -35942.809234394757, 30638.215970191086)
    CV[99] (12413.402695420289, -35732.379722336424, 31056.311976753292)
    CV[100] (12458.410919873768, -35607.021433846829, 31305.382552901581)
    CV[101] (12504.288795985143, -35479.240964861558, 31556.213581060194)
    CV[102] (12550.5257277616, -35350.460443014992, 31805.823576821123)
