  
  Rhino 物体: 曲线
  开发人员除错信息
  使用 Rhino 的"What"指令。
  名称: ""
  ID:84738255-76A6-4590-9255-CEDB45C6FE2E
  图层索引: 5
  渲染材质索引: -1 (从图层)
  ON_NurbsCurve dim = 3 is_rat = 0
          order = 4 cv_count = 113
  Knot Vector ( 115 knots )
  index                     value  mult       delta
      0                        0     3
      3       1251.4644574226754     3        1251
      6       2502.5267835677432     3        1251
      9       2923.3324544946117     3       420.8
     12       3343.8727389659607     3       420.5
     15       3764.2643758453651     3       420.4
     18       4184.6210584597839     3       420.4
     21       4605.0377193413633     3       420.4
     24       4815.3011413578106     2       210.3
     26       5025.5674154605222     3       210.3
     29       5667.7730358518656     3       642.2
     32       6310.2643631744077     3       642.5
     35       6952.8492380241141     3       642.6
     38       7274.0387561540247     2       321.2
     40       7595.2340724512496     3       321.2
     43       7922.5946083851395     2       327.4
     45       8249.9577806210582     3       327.4
     48       8904.5411474701359     3       654.6
     51       9559.1247366278403     3       654.6
     54       10213.747093747001     3       654.6
     57       10881.719690958109     3         668
     60       11549.701714300789     3         668
     63        12217.64790639296     3       667.9
     66       12885.633904914836     3         668
     69       13567.786416450428     3       682.2
     72       13908.828244665661     2         341
     74       14249.873298745873     3         341
     77       14931.806385631928     3       681.9
     80       15272.720551666082     2       340.9
     82       15613.635271966461     3       340.9
     85        16304.33234218385     2       690.7
     87       16995.034504657564     3       690.7
     90        17685.32579509099     2       690.3
     92           18030.47454625     2       345.1
     94       18375.623913985353     3       345.1
     97       18725.273572939779     2       349.6
     99       19074.923947341264     2       349.7
    101       19424.575008751122     2       349.7
    103       19774.226769074292     3       349.7
    106       20123.608588893912     2       349.4
    108       20472.991029113131     2       349.4
    110       20822.374142783876     2       349.4
    112       20850.782157203994     3       28.41
  Control Points  113 non-rational points
    index               value
    CV[ 0] (13057.704667341775, -42013.467122605041, 12300.000000000004)
    CV[ 1] (13055.459731197459, -42020.480301141637, 12716.832082089322)
    CV[ 2] (13056.320247520927, -42017.792048905409, 13134.49181248585)
    CV[ 3] (13060.317781942833, -42005.303754894019, 13551.183619415253)
    CV[ 4] (13064.321977271567, -41992.794652215569, 13968.569740641375)
    CV[ 5] (13071.462220172793, -41970.488539684156, 14383.786365511847)
    CV[ 6] (13081.801024702891, -41938.190123442735, 14799.999999999993)
    CV[ 7] (13085.273694774001, -41927.341505200719, 14939.800750412525)
    CV[ 8] (13089.101766944332, -41915.382611113928, 15079.522630416261)
    CV[ 9] (13093.289045838494, -41902.301555538419, 15219.10515988457)
    CV[10] (13097.473901482506, -41889.228070194236, 15358.606910547895)
    CV[11] (13102.019771758034, -41875.026775459337, 15498.008540706855)
    CV[12] (13106.923862892569, -41859.70639907656, 15637.250379562334)
    CV[13] (13111.826484764719, -41844.390612668176, 15776.450501657033)
    CV[14] (13117.088192809171, -41827.953041373941, 15915.530947333493)
    CV[15] (13122.707627048243, -41810.397933762957, 16054.431693760125)
    CV[16] (13128.326894231801, -41792.843348033246, 16193.328310921295)
    CV[17] (13134.305726326587, -41774.165481837706, 16332.084947763664)
    CV[18] (13140.64234974893, -41754.369875850171, 16470.641332999086)
    CV[19] (13146.980219905283, -41734.570375066687, 16609.224979276638)
    CV[20] (13153.677143299488, -41713.649192284545, 16747.648456477313)
    CV[21] (13160.729159515467, -41691.618699840095, 16885.852762769631)
    CV[22] (13164.256392018871, -41680.599628607677, 16954.978911424823)
    CV[23] (13167.873103801852, -41669.301024184693, 17024.058032629324)
    CV[24] (13175.286462935428, -41646.141696784085, 17162.107163684545)
    CV[25] (13179.083380033726, -41634.28013111488, 17231.082178427911)
    CV[26] (13182.969471775858, -41622.139983936904, 17300)
    CV[27] (13194.813863501427, -41585.138114623558, 17510.054144302059)
    CV[28] (13207.56116949745, -41545.315541924982, 17720.920568271329)
    CV[29] (13221.035697804862, -41503.221127366443, 17929.914802880652)
    CV[30] (13234.552641979179, -41460.994205677074, 18139.566921123187)
    CV[31] (13248.861489945048, -41416.29337724069, 18348.26781547724)
    CV[32] (13263.981915611314, -41369.057180783471, 18556.73789760143)
    CV[33] (13279.088069433201, -41321.865569555506, 18765.011209301545)
    CV[34] (13294.998622260549, -41272.161016543345, 18972.976324938212)
    CV[35] (13311.534902049239, -41220.501693055325, 19180.075778998093)
    CV[36] (13319.804644203912, -41194.667025851464, 19283.64557264782)
    CV[37] (13328.237495201154, -41168.322806767137, 19387.079129601378)
    CV[38] (13345.365954150604, -41114.813516102739, 19593.701321374836)
    CV[39] (13354.062156037853, -41087.646589070115, 19696.898113157724)
    CV[40] (13362.857398242071, -41060.170260174549, 19800.000000000004)
    CV[41] (13371.821697284733, -41032.165797864654, 19905.083649097676)
    CV[42] (13380.88919233249, -41003.83895132575, 20010.074642331496)
    CV[43] (13399.245488171351, -40946.493899300804, 20219.843360213104)
    CV[44] (13408.534703820544, -40917.474397798447, 20324.626020516174)
    CV[45] (13417.943672659756, -40888.080787435974, 20429.289451270772)
    CV[46] (13436.757386864027, -40829.306760840569, 20638.569331723742)
    CV[47] (13456.053964976763, -40769.02426782062, 20847.402377477232)
    CV[48] (13475.809058338864, -40707.309373565695, 21055.737400567901)
    CV[49] (13495.564994846727, -40645.591845324154, 21264.081315380277)
    CV[50] (13515.782850384974, -40582.43128243876, 21471.973733528695)
    CV[51] (13536.462604021035, -40517.8277503028, 21679.341709240427)
    CV[52] (13557.144398327837, -40453.217843113249, 21886.730147950293)
    CV[53] (13578.293435778025, -40387.14826875546, 22093.637305926655)
    CV[54] (13599.899545713311, -40319.650800357034, 22300)
    CV[55] (13621.947166708287, -40250.774051797198, 22510.579622155856)
    CV[56] (13644.474446212249, -40180.39885047797, 22720.639850006984)
    CV[57] (13667.468861849367, -40108.564316290402, 22930.117437021807)
    CV[58] (13690.464552300147, -40036.725799586078, 23139.606637503734)
    CV[59] (13713.933131258415, -39963.409979601071, 23348.558306347626)
    CV[60] (13737.868676409791, -39888.635357640291, 23556.901991467108)
    CV[61] (13761.803923247788, -39813.861667610239, 23765.243079958476)
    CV[62] (13786.211243033662, -39737.613222107015, 23973.021350200954)
    CV[63] (13811.072933614141, -39659.945322641841, 24180.18216699559)
    CV[64] (13835.937166858752, -39582.26947989616, 24387.364170618901)
    CV[65] (13861.260733907555, -39503.158678750951, 24593.971529768121)
    CV[66] (13886.99391024002, -39422.768258564523, 24799.999999999985)
    CV[67] (13913.273767776307, -39340.670006779103, 25010.405383935486)
    CV[68] (13939.986603011515, -39257.219133043778, 25220.249670258425)
    CV[69] (13967.185452324064, -39172.249951759135, 25429.385311810227)
    CV[70] (13980.784337733532, -39129.767045723354, 25533.948986244282)
    CV[71] (13994.505660382945, -39086.901645857884, 25638.343492751672)
    CV[72] (14022.12332841788, -39000.624075253567, 25846.876945609714)
    CV[73] (14036.020199428192, -38957.210262463341, 25951.019794345812)
    CV[74] (14049.970736399668, -38913.628797257727, 26055.083454751599)
    CV[75] (14077.865598107464, -38826.485273863655, 26263.164435559876)
    CV[76] (14105.976553299824, -38738.666674614236, 26470.937759581881)
    CV[77] (14134.272794503915, -38650.26924202744, 26678.432893089201)
    CV[78] (14148.418915459308, -38606.076772628418, 26782.165796518984)
    CV[79] (14162.611460974094, -38561.739272946768, 26885.831025960186)
    CV[80] (14191.090682713997, -38472.77020932734, 27093.021189795967)
    CV[81] (14205.3774824232, -38428.138259625368, 27196.547050101271)
    CV[82] (14219.712735325498, -38383.354942190883, 27300)
    CV[83] (14248.756200406569, -38292.623182870855, 27509.597427990688)
    CV[84] (14278.000148134986, -38201.265115937196, 27718.899994898926)
    CV[85] (14336.887033796564, -38017.302537021831, 28136.890387335185)
    CV[86] (14366.531112297385, -37924.694461907755, 28345.586327537596)
    CV[87] (14396.367697712511, -37831.484995363047, 28553.979864640758)
    CV[88] (14426.187028698669, -37738.32943163922, 28762.252888239014)
    CV[89] (14456.198525577245, -37644.573541836813, 28970.23370872638)
    CV[90] (14501.505684564523, -37503.03401708544, 29281.744063513703)
    CV[91] (14516.656808943661, -37455.701917876257, 29385.505843828025)
    CV[92] (14547.058205775947, -37360.727980962045, 29592.871789046523)
    CV[93] (14562.308623653002, -37313.085688952888, 29696.476978217645)
    CV[94] (14577.610228508274, -37265.283488868867, 29800.000000000022)
    CV[95] (14593.111520081571, -37216.857467653703, 29904.87400245764)
    CV[96] (14608.665617018085, -37168.266482530336, 30009.664602190023)
    CV[97] (14639.879397092249, -37070.754661084378, 30219.075053326651)
    CV[98] (14655.539251931572, -37021.833288365895, 30323.696042699317)
    CV[99] (14686.963412251072, -36923.664239218895, 30532.767677033418)
    CV[100] (14702.727885705659, -36874.416038038515, 30637.219448526783)
    CV[101] (14734.358736022998, -36775.601289520411, 30845.955461245325)
    CV[102] (14750.22527269276, -36726.034242945709, 30950.240787908871)
    CV[103] (14766.140808134805, -36676.314124249606, 31054.444813214875)
    CV[104] (14782.044178179178, -36626.632010245114, 31158.569187829165)
    CV[105] (14797.99649622994, -36576.796982711792, 31262.61362618065)
    CV[106] (14829.998449933157, -36476.822907543217, 31470.540110766269)
    CV[107] (14846.048237246783, -36426.68338611861, 31574.423150724288)
    CV[108] (14878.24673285151, -36326.095314222905, 31782.022924572109)
    CV[109] (14894.395592512039, -36275.646290873869, 31885.740687896381)
    CV[110] (14911.912911467862, -36220.922201892216, 31997.797606395412)
    CV[111] (14913.230466572639, -36216.80616090593, 32006.22316189481)
    CV[112] (14914.54833698133, -36212.689134910463, 32014.648190195996)
