  
  Rhino 物体: 曲线
  开发人员除错信息
  使用 Rhino 的"What"指令。
  名称: ""
  ID:E2432C5C-3AD2-4ec2-B9FA-0A920205AF38
  图层索引: 5
  渲染材质索引: -1 (从图层)
  ON_NurbsCurve dim = 3 is_rat = 0
          order = 4 cv_count = 110
  Knot Vector ( 112 knots )
  index                     value  mult       delta
      0                        0     3
      3       1250.6016664186907     3        1251
      6       2501.4930645463392     3        1251
      9       2921.3218547135111     3       419.8
     12       3340.8687519135947     3       419.5
     15       3760.2704545150273     3       419.4
     18       4179.6647667335419     3       419.4
     21       4599.1502786471265     3       419.5
     24       5018.7964216302444     3       419.6
     27        5659.364082045473     3       640.6
     30       6300.0866617197344     3       640.7
     33       6940.9985879378928     3       640.9
     36       7261.3668821357533     2       320.4
     38        7581.741218475514     3       320.4
     41       7907.6873190141932     2       325.9
     43       8233.6351535932881     3       325.9
     46       8885.5914524750642     3         652
     49       9537.5892556614599     3         652
     52       10189.485528910875     3       651.9
     55       10852.682540557003     3       663.2
     58       11515.633816234433     3         663
     61        12178.54080559571     3       662.9
     64       12510.055274919507     2       331.5
     66       12841.572510661572     3       331.5
     69       13179.003573175993     2       337.4
     71       13516.437557794196     3       337.4
     74       14191.401837479203     3         675
     77       14866.374756286379     3         675
     80       15203.876692591421     2       337.5
     82       15541.378787964011     3       337.5
     85       16221.055587833147     2       679.7
     87       16900.733779373211     3       679.7
     90       17580.533075737061     2       679.8
     92       18260.333784270741     3       679.8
     95       18943.869819623185     2       683.5
     97       19627.407214311683     3       683.5
    100       19969.287682243012     2       341.9
    102       20311.168333430229     2       341.9
    104       20653.049136628717     2       341.9
    106       20994.930092905604     3       341.9
    109       21089.877954882308     3       94.95
  Control Points  110 non-rational points
    index               value
    CV[ 0] (18735.740142091752, -43185.442864268502, 12300.000000000013)
    CV[ 1] (18731.233370830421, -43204.214917614401, 12716.2442550055)
    CV[ 2] (18729.236856780441, -43212.530997148642, 13133.373198234807)
    CV[ 3] (18729.800936750045, -43210.181434975035, 13550.059540507164)
    CV[ 4] (18730.365757990894, -43207.828785184465, 13967.293460465276)
    CV[ 5] (18733.497109690958, -43194.785766635337, 14383.485273220365)
    CV[ 6] (18739.247770813701, -43170.832539122668, 14799.999999999996)
    CV[ 7] (18741.175855764533, -43162.801487300065, 14939.649295857163)
    CV[ 8] (18743.398834112624, -43153.542116074546, 15079.367313531244)
    CV[ 9] (18745.912206337322, -43143.073167298542, 15218.845722846203)
    CV[10] (18748.425077905995, -43132.60630390497, 15358.296348490656)
    CV[11] (18751.229807789503, -43120.923763136649, 15497.595160972694)
    CV[12] (18754.328254904256, -43108.017802049479, 15636.829434423849)
    CV[13] (18757.42515666386, -43095.118277829773, 15775.994264571955)
    CV[14] (18760.814460296002, -43081.000812154525, 15915.048677595398)
    CV[15] (18764.494973879107, -43065.670369734449, 16053.952489897751)
    CV[16] (18768.175937293316, -43050.338053632979, 16192.873278976205)
    CV[17] (18772.147109050606, -43033.796932783749, 16331.602941273075)
    CV[18] (18776.411450217638, -43016.034673456452, 16470.217281827441)
    CV[19] (18780.674792782433, -42998.276573606847, 16608.799162363826)
    CV[20] (18785.233912754444, -42979.286472187887, 16747.35500178903)
    CV[21] (18790.075610688349, -42959.119348846238, 16885.587764849461)
    CV[22] (18794.927140251191, -42938.911273822727, 17024.101225560153)
    CV[23] (18800.048179919577, -42917.580608415738, 17161.88423339466)
    CV[24] (18805.482661374772, -42894.94436400292, 17299.999999999989)
    CV[25] (18813.750300787986, -42860.507167369273, 17510.119652626719)
    CV[26] (18822.744209007789, -42823.04484343488, 17721.030856813806)
    CV[27] (18832.335839879677, -42783.092825468942, 17930.115151652317)
    CV[28] (18841.955030177647, -42743.026014231596, 18139.800203884955)
    CV[29] (18852.21687200381, -42700.282366724874, 18348.552941478367)
    CV[30] (18863.207916600019, -42654.501371080114, 18556.998293321754)
    CV[31] (18874.190987704977, -42608.753587416701, 18765.292427764994)
    CV[32] (18885.896064408258, -42559.998433993082, 18973.163246375967)
    CV[33] (18898.104922222894, -42509.144881216824, 19180.197859785763)
    CV[34] (18904.21052283579, -42483.713224323714, 19283.735035966958)
    CV[35] (18910.446480100956, -42457.738592895526, 19387.135027568151)
    CV[36] (18923.109395511663, -42404.993754113988, 19593.70921977692)
    CV[37] (18929.536773692242, -42378.221797188802, 19696.891326380799)
    CV[38] (18936.024868580374, -42351.196936974971, 19800)
    CV[39] (18942.625959951547, -42323.701412535142, 19904.904411457581)
    CV[40] (18949.290129378634, -42295.943149082843, 20009.737390023103)
    CV[41] (18962.762446429388, -42239.826909827636, 20219.230214621573)
    CV[42] (18969.57080512153, -42211.468054861274, 20323.893549154171)
    CV[43] (18976.46070803405, -42182.769543771632, 20428.455782609177)
    CV[44] (18990.241717100271, -42125.367509732139, 20637.598510093594)
    CV[45] (19004.351034186901, -42066.597974367309, 20846.359744951096)
    CV[46] (19018.765216594868, -42006.558583546379, 21054.710572531316)
    CV[47] (19033.180795779201, -41946.513374733164, 21263.081589915098)
    CV[48] (19047.903455009277, -41885.189085472739, 21471.077682770298)
    CV[49] (19062.93604696972, -41822.573833478578, 21678.640235966515)
    CV[50] (19077.966745694015, -41759.966467380531, 21886.176648299646)
    CV[51] (19093.309522436411, -41696.059202782213, 22093.313548468323)
    CV[52] (19108.960393492445, -41630.868633006874, 22300)
    CV[53] (19124.883054224007, -41564.545977755697, 22510.27572419239)
    CV[54] (19141.127810801801, -41496.881696746874, 22720.120156228182)
    CV[55] (19157.692643277449, -41427.884203670976, 22929.476087969408)
    CV[56] (19174.251871507939, -41358.910053956191, 23138.761190019653)
    CV[57] (19191.133457480806, -41288.593187607796, 23347.59455732608)
    CV[58] (19208.331260661878, -41216.95918179147, 23555.924942944799)
    CV[59] (19225.528464661867, -41145.327671743988, 23764.248070216268)
    CV[60] (19243.045249824692, -41072.365010349087, 23972.103849922823)
    CV[61] (19260.885052914178, -40998.05688245513, 24179.425293242453)
    CV[62] (19269.807059168139, -40960.894051763302, 24283.110474328802)
    CV[63] (19278.810334099584, -40923.392712666988, 24386.669444726886)
    CV[64] (19296.975500077238, -40847.729350806345, 24593.526543074622)
    CV[65] (19306.137791975965, -40809.56565837111, 24696.82920521298)
    CV[66] (19315.378472500575, -40771.075453809681, 24799.999999999993)
    CV[67] (19324.784143298577, -40731.898015298699, 24905.012886134351)
    CV[68] (19334.271573801052, -40692.380023108621, 25009.893761453972)
    CV[69] (19353.422560796844, -40612.610421177451, 25219.354415489455)
    CV[70] (19363.08661199324, -40572.356750849722, 25323.939439609392)
    CV[71] (19372.844522989857, -40531.71212631675, 25428.359619256251)
    CV[72] (19392.363238325492, -40450.410825612329, 25637.230940436566)
    CV[73] (19412.258722199742, -40367.540170996697, 25845.465148244806)
    CV[74] (19432.251769534174, -40284.263135321766, 26053.506414227188)
    CV[75] (19452.245768545712, -40200.9821356264, 26261.557583057569)
    CV[76] (19472.339632968316, -40117.285166556241, 26469.433949502458)
    CV[77] (19492.510696358255, -40033.266640644375, 26677.170623472317)
    CV[78] (19502.596732639238, -39991.255275936419, 26781.044157060853)
    CV[79] (19512.702044416885, -39949.163623006447, 26884.883470798643)
    CV[80] (19532.950893538287, -39864.821096204381, 27092.493379008181)
    CV[81] (19543.094455331724, -39822.570120492026, 27196.264237419171)
    CV[82] (19553.257438205881, -39780.238250156413, 27299.999999999993)
    CV[83] (19573.724122162821, -39694.988375961686, 27508.907866328573)
    CV[84] (19594.270248531066, -39609.407600308579, 27717.67403746062)
    CV[85] (19635.529769972894, -39437.549324700725, 28134.900164726769)
    CV[86] (19656.24342904878, -39351.270725097253, 28343.362416315285)
    CV[87] (19677.040294753991, -39264.645544938896, 28551.670506078204)
    CV[88] (19697.840957320041, -39178.004549716927, 28760.016626419361)
    CV[89] (19718.724231049422, -39091.019454234469, 28968.212476111505)
    CV[90] (19760.643909645496, -38916.411426176892, 29384.318364777333)
    CV[91] (19781.680557388067, -38828.787481950945, 29592.230568413706)
    CV[92] (19802.79299381523, -38740.847855133688, 29800.000000000022)
    CV[93] (19824.021517806163, -38652.424688812542, 30008.91185999442)
    CV[94] (19845.327777665439, -38563.677729296032, 30217.679888906801)
    CV[95] (19888.108312065378, -38385.483978747521, 30634.897177380502)
    CV[96] (19909.582884915377, -38296.035945167714, 30843.348655554939)
    CV[97] (19931.141562096924, -38206.237591834157, 31051.638626620639)
    CV[98] (19941.924480123806, -38161.323505742934, 31155.818195010201)
    CV[99] (19952.728304010812, -38116.322340477127, 31259.95819809991)
    CV[100] (19974.375143757588, -38026.156763629959, 31468.163077966034)
    CV[101] (19985.218193621993, -37980.99221040908, 31572.228228073163)
    CV[102] (20006.941958151485, -37890.506218781353, 31780.286042423435)
    CV[103] (20017.822700779841, -37845.18466389909, 31884.278962413413)
    CV[104] (20039.621253689726, -37754.387156246921, 32092.193191067283)
    CV[105] (20050.539087291567, -37708.911106340922, 32196.114751875117)
    CV[106] (20061.475628261465, -37663.357134638871, 32300.000000000015)
    CV[107] (20064.512951939207, -37650.705770990462, 32328.851272515363)
    CV[108] (20067.551726301972, -37638.048364804046, 32357.699752639979)
    CV[109] (20070.591968345321, -37625.384845288005, 32386.545397372189)
