  
  Rhino 物体: 曲线
  开发人员除错信息
  使用 Rhino 的"What"指令。
  名称: ""
  ID:950299B3-E7FF-45f3-81B8-2BF6E67C4A75
  图层索引: 5
  渲染材质索引: -1 (从图层)
  ON_NurbsCurve dim = 3 is_rat = 0
          order = 4 cv_count = 112
  Knot Vector ( 114 knots )
  index                     value  mult       delta
      0                        0     3
      3       1250.6725992543832     3        1251
      6       2501.8886003323141     3        1251
      9       2921.0180613917582     3       419.1
     12       3339.8622595370157     3       418.8
     15       3758.5720854385845     3       418.7
     18       4177.2993460139942     3       418.7
     21       4596.1221164709659     3       418.8
     24       5015.1357667173688     3         419
     27       5654.2423096460698     3       639.1
     30       6293.4767766023188     3       639.2
     33       6932.9020759212281     3       639.4
     36       7252.5320123669726     2       319.6
     38        7572.167749530543     3       319.6
     41       8221.8741496445564     3       649.7
     44       8871.6877847450378     3       649.8
     47       9521.5379968175894     3       649.9
     50       10171.268137648034     3       649.7
     53       10831.290006588095     3         660
     56        11490.99898723984     3       659.7
     59       12150.640404584386     3       659.6
     62       12480.539139901153     2       329.9
     64       12810.440388157193     3       329.9
     67       13145.679832602069     2       335.2
     69        13480.92199298139     3       335.2
     72       13816.209236895342     2       335.3
     74       14151.499263394597     3       335.3
     77       14822.129654323915     3       670.6
     80       15157.479924168963     2       335.4
     82       15492.830325185929     3       335.4
     85       16167.439042971488     2       674.6
     87       16842.048838575112     3       674.6
     90       17516.897874408831     2       674.8
     92       18191.748058182438     3       674.9
     95       18869.551042470761     2       677.8
     97       19208.453216809521     2       338.9
     99       19547.355541522913     3       338.9
    102       19886.450228203143     2       339.1
    104       20225.545065519669     2       339.1
    106       20564.640016143905     2       339.1
    108       20903.735082685573     3       339.1
    111       21163.573977038701     3       259.8
  Control Points  112 non-rational points
    index               value
    CV[ 0] (21795.921777649255, -43455.622808907545, 12300.000000000009)
    CV[ 1] (21790.219306447863, -43484.291067666541, 12715.759768568601)
    CV[ 2] (21786.712968214168, -43501.918620394143, 13132.470749530239)
    CV[ 3] (21785.457655663791, -43508.229502772447, 13549.209283851937)
    CV[ 4] (21784.201388303976, -43514.545185301962, 13966.264795715526)
    CV[ 5] (21785.199905987163, -43509.525297904722, 14383.236453126559)
    CV[ 6] (21788.504877444826, -43492.910084325689, 14800)
    CV[ 7] (21789.611678112466, -43487.345821602757, 14939.569789886527)
    CV[ 8] (21790.977447288362, -43480.479636267126, 15079.153737596238)
    CV[ 9] (21792.598963523487, -43472.327723636845, 15218.591257081433)
    CV[10] (21794.219778324019, -43464.1793373564, 15357.96845876173)
    CV[11] (21796.096493985908, -43454.744450565726, 15497.231606660627)
    CV[12] (21798.230330393093, -43444.016930494152, 15636.427142910296)
    CV[13] (21800.363299695804, -43433.293769651151, 15775.566115746053)
    CV[14] (21802.752633654192, -43421.281776646458, 15914.601840633055)
    CV[15] (21805.397340157608, -43407.985939157086, 16053.509771202996)
    CV[16] (21808.042410240123, -43394.688273832151, 16192.436798039127)
    CV[17] (21810.942164398704, -43380.110225189754, 16331.196145558833)
    CV[18] (21814.098395930396, -43364.242777716849, 16469.842488137183)
    CV[19] (21817.254136291122, -43348.377799527152, 16608.467254650008)
    CV[20] (21820.668094370976, -43331.214673196657, 16747.058998384469)
    CV[21] (21824.330382712513, -43312.803106330772, 16885.356029063227)
    CV[22] (21827.999745672376, -43294.35597295667, 17023.920214759983)
    CV[23] (21831.908539675907, -43274.705138437501, 17161.816061546877)
    CV[24] (21836.088270777349, -43253.692211142079, 17299.999999999993)
    CV[25] (21842.443957071951, -43221.740018338329, 17510.122073034316)
    CV[26] (21849.427197812613, -43186.632896275063, 17720.94670470191)
    CV[27] (21856.94034999677, -43148.861729476615, 17930.062303593171)
    CV[28] (21864.473060474698, -43110.992236495207, 18139.722273770185)
    CV[29] (21872.568443169825, -43070.293999246693, 18348.499918246504)
    CV[30] (21881.312807021837, -43026.333113388799, 18556.92213019422)
    CV[31] (21890.051878828715, -42982.398832438492, 18765.218206064867)
    CV[32] (21899.434124532643, -42935.231097945631, 18973.039621021846)
    CV[33] (21909.233396255921, -42885.966832070168, 19180.087631059709)
    CV[34] (21914.133792653574, -42861.330875659674, 19283.627705381863)
    CV[35] (21919.141563745921, -42836.155110204447, 19387.03793064144)
    CV[36] (21929.311056306626, -42785.029618486617, 19593.648810421462)
    CV[37] (21934.473102934255, -42759.078257537934, 19696.856942957016)
    CV[38] (21939.681918290087, -42732.891774314237, 19800)
    CV[39] (21950.269707086049, -42679.663365407214, 20009.655522251905)
    CV[40] (21961.051445573623, -42625.459905553187, 20219.064981808755)
    CV[41] (21972.091513288218, -42569.957736970282, 20428.101764024381)
    CV[42] (21983.13359610971, -42514.445437760871, 20637.176701029675)
    CV[43] (21994.436060907661, -42457.624109954224, 20845.90411427015)
    CV[44] (22005.979359104032, -42399.5920308891, 21054.26006661955)
    CV[45] (22017.523652344389, -42341.554949400037, 21262.633979462891)
    CV[46] (22029.310517790516, -42282.298375077589, 21470.668060110474)
    CV[47] (22041.34295044413, -42221.807251031278, 21678.309014311359)
    CV[48] (22053.373480216254, -42161.325693416256, 21885.917130919115)
    CV[49] (22065.650735415267, -42099.603763315201, 22093.163184786565)
    CV[50] (22078.172758962803, -42036.651299625541, 22300)
    CV[51] (22090.893473783941, -41972.699947446374, 22510.118766416203)
    CV[52] (22103.869660287935, -41907.464252383048, 22719.845699417536)
    CV[53] (22117.099812832268, -41840.951783811644, 22929.129539263929)
    CV[54] (22130.324078999874, -41774.468908054514, 23138.320264271304)
    CV[55] (22143.803505055846, -41706.703256909997, 23347.101672141078)
    CV[56] (22157.533383399896, -41637.678497082961, 23555.428062505875)
    CV[57] (22171.262248114272, -41568.658833116431, 23763.73907285004)
    CV[58] (22185.244191731632, -41498.366855582492, 23971.626865256098)
    CV[59] (22199.484127457952, -41426.777864126663, 24179.027548729973)
    CV[60] (22206.60611412624, -41390.973219179978, 24282.757293799274)
    CV[61] (22213.792921025364, -41354.842700925932, 24386.372019031907)
    CV[62] (22228.29384143971, -41281.941650837216, 24593.36239465254)
    CV[63] (22235.608248597251, -41245.169642762936, 24696.742220151118)
    CV[64] (22242.986186133276, -41208.078245906996, 24800)
    CV[65] (22250.483616989459, -41170.386115561785, 24904.930146263767)
    CV[66] (22258.047104269659, -41132.361897146409, 25009.738463717764)
    CV[67] (22273.316135606012, -41055.599292673644, 25219.077679865088)
    CV[68] (22281.022050783096, -41016.859040865354, 25323.613456881885)
    CV[69] (22288.803303170127, -40977.740043325124, 25427.998102301353)
    CV[70] (22296.585756116943, -40938.615010163259, 25532.398853098381)
    CV[71] (22304.443789558009, -40899.110008196716, 25636.653294084466)
    CV[72] (22320.252943169457, -40819.632025671694, 25844.971353298028)
    CV[73] (22328.204324256796, -40779.657733395106, 25949.038040711519)
    CV[74] (22336.174069402914, -40739.591118760312, 26053.066744651245)
    CV[75] (22352.114877744894, -40659.451263207193, 26261.141356971169)
    CV[76] (22368.129681340721, -40578.939408391096, 26469.068067432781)
    CV[77] (22384.203625230031, -40498.130235241071, 26676.872895439257)
    CV[78] (22392.241464834922, -40457.721286643471, 26780.786526601616)
    CV[79] (22400.294060775585, -40417.238152936079, 26884.670268493919)
    CV[80] (22416.427917321653, -40336.127778519767, 27092.379000969257)
    CV[81] (22424.509194782309, -40295.500453073757, 27196.204203797301)
    CV[82] (22432.604752389263, -40254.801336484132, 27299.999999999996)
    CV[83] (22448.890216332846, -40172.92878020872, 27508.801268377472)
    CV[84] (22465.233966848784, -40090.763197545384, 27717.483964275001)
    CV[85] (22498.04687139668, -39925.80158616828, 28134.588084156516)
    CV[86] (22514.516211072598, -39843.004624159272, 28343.011304058506)
    CV[87] (22531.048978988591, -39759.888786853102, 28551.300861510936)
    CV[88] (22547.587668826814, -39676.743178033328, 28759.66502683104)
    CV[89] (22564.189288084777, -39593.281201655584, 28967.898805345147)
    CV[90] (22597.505757917272, -39425.787996628802, 29384.126026310427)
    CV[91] (22614.220785807946, -39341.755876551309, 29592.121143080807)
    CV[92] (22630.990145346965, -39257.450612831643, 29800.000000000022)
    CV[93] (22647.832937317562, -39172.776179347587, 30008.789151072215)
    CV[94] (22664.731314973949, -39087.82229774935, 30217.461324898024)
    CV[95] (22690.172367581905, -38959.921488870554, 30530.268326561993)
    CV[96] (22698.668271808183, -38917.209693905053, 30634.504374410233)
    CV[97] (22715.691946992698, -38831.625899093509, 30842.907786661392)
    CV[98] (22724.21973888329, -38788.753794013406, 30947.075401404913)
    CV[99] (22732.763538809948, -38745.801211101163, 31051.208327776956)
    CV[100] (22741.312210022807, -38702.824138579344, 31155.400626008344)
    CV[101] (22749.876862753776, -38659.766721540145, 31259.5585858214)
    CV[102] (22767.035557521209, -38573.504137445154, 31467.810592875016)
    CV[103] (22775.62962344605, -38530.29885029437, 31571.904858837908)
    CV[104] (22792.845420310274, -38443.749194572243, 31780.033010790361)
    CV[105] (22801.467170027918, -38400.404731596238, 31884.067093152898)
    CV[106] (22818.737297847143, -38313.581935717571, 32092.076946329908)
    CV[107] (22827.385690816212, -38270.103528070998, 32196.052902423777)
    CV[108] (22836.047208217373, -38226.559139448509, 32300.000000000015)
    CV[109] (22842.684291714813, -38193.192267369755, 32379.651813184348)
    CV[110] (22849.329119393813, -38159.786462661126, 32459.286725613285)
    CV[111] (22855.982137339292, -38126.339482702155, 32538.903609607085)
