  
  Rhino 物体: 曲线
  开发人员除错信息
  使用 Rhino 的"What"指令。
  名称: ""
  ID:AF8199BC-6469-4c67-9A24-09D41C90E347
  图层索引: 5
  渲染材质索引: -1 (从图层)
  ON_NurbsCurve dim = 3 is_rat = 0
          order = 4 cv_count = 118
  Knot Vector ( 120 knots )
  index                     value  mult       delta
      0                        0     3
      3       1251.6091437787527     3        1252
      6       2503.5370232310634     3        1252
      9       2922.0899647574442     3       418.6
     12       3340.3332142683175     3       418.2
     15       3758.4324281767622     3       418.1
     18       4176.5534742614655     3       418.1
     21       4594.7565681331334     3       418.2
     24       5013.1660389432736     3       418.4
     27       5650.7424953224781     3       637.6
     30       6288.4351204758495     3       637.7
     33       6926.2934864185245     3       637.9
     36       7564.0036452586028     3       637.7
     39       8211.4968248840178     3       647.5
     42       8859.0912580223303     3       647.6
     45       9506.7051761839575     3       647.6
     48       9830.4492352851266     2       323.7
     50       10154.195383999984     3       323.7
     53       10482.682259154144     2       328.5
     55        10811.17135078653     3       328.5
     58       11467.804516889548     3       656.6
     61       11796.064613776958     2       328.3
     63       12124.326904351816     3       328.3
     66       12452.664227442887     2       328.3
     68       12781.003830463376     3       328.3
     71       13114.217399268282     2       333.2
     73       13447.433412551834     3       333.2
     76       13780.672834991314     2       333.2
     78       14113.914762403529     3       333.2
     81        14780.45915551347     3       666.5
     84       15113.780564114835     2       333.3
     86       15447.102132723738     3       333.3
     89       16117.594422409673     2       670.5
     91        16788.08803684737     3       670.5
     94       17458.905675701644     2       670.8
     96       18129.724712781212     3       670.8
     99       18803.621400790624     2       673.9
    101       19140.570596126159     2       336.9
    103       19477.519975595576     3       336.9
    106       19814.697297014249     2       337.2
    108        20151.87479947706     2       337.2
    110       20489.052447245227     2       337.2
    112       20826.230242034573     3       337.2
    115         21164.9381573266     2       338.7
    117       21201.971961877764     3       37.03
  Control Points  118 non-rational points
    index               value
    CV[ 0] (24525.484768637391, -43500.068840553999, 12300.000000000015)
    CV[ 1] (24519.099385764483, -43539.276561879444, 12715.268888089669)
    CV[ 2] (24514.610652471965, -43566.838418003012, 13131.610584326452)
    CV[ 3] (24512.072969752626, -43582.420374301117, 13548.479196762144)
    CV[ 4] (24509.53556554961, -43598.000620444858, 13965.302056940203)
    CV[ 5] (24508.946861475317, -43601.615399033326, 14382.967641192707)
    CV[ 6] (24510.356688355554, -43592.958737320536, 14800.000000000004)
    CV[ 7] (24510.828234827506, -43590.063333390608, 14939.485308616882)
    CV[ 8] (24511.523491394153, -43585.794297961154, 15078.93892471568)
    CV[ 9] (24512.440338426841, -43580.164646040343, 15218.338393568687)
    CV[10] (24513.356541295267, -43574.538949436421, 15357.63992225025)
    CV[11] (24514.4938913121, -43567.555358413454, 15496.867298862373)
    CV[12] (24515.853258963274, -43559.208527987335, 15636.02868330491)
    CV[13] (24517.212128368417, -43550.864756906587, 15775.139061231688)
    CV[14] (24518.792593931845, -43541.16033438273, 15914.157006826837)
    CV[15] (24520.593976967553, -43530.099427704117, 16053.072702175125)
    CV[16] (24522.395546871372, -43519.037373612264, 16192.002808069725)
    CV[17] (24524.417579465025, -43506.621627834633, 16330.792036088007)
    CV[18] (24526.661054134369, -43492.846176716499, 16469.472949213141)
    CV[19] (24528.904277089292, -43479.072271182878, 16608.138302552252)
    CV[20] (24531.369997893606, -43463.93217761509, 16746.76369232565)
    CV[21] (24534.051383150247, -43447.46785464479, 16885.127533791274)
    CV[22] (24536.73750628245, -43430.974440027465, 17023.735857343701)
    CV[23] (24539.633634291393, -43413.191547105089, 17161.750151696946)
    CV[24] (24542.760960465792, -43393.989044204311, 17299.999999999993)
    CV[25] (24547.513543574365, -43364.80708944831, 17510.097654407473)
    CV[26] (24552.801132478817, -43332.340075899447, 17720.786519853293)
    CV[27] (24558.550804469676, -43297.035765787245, 17929.916862004058)
    CV[28] (24564.313692565898, -43261.650305744581, 18139.527907861229)
    CV[29] (24570.561356696973, -43223.28820920919, 18348.321895811703)
    CV[30] (24577.366105400077, -43181.505485110843, 18556.722549600374)
    CV[31] (24584.167429571655, -43139.743788424697, 18765.018324481673)
    CV[32] (24591.521505140292, -43094.588070867867, 18972.805613296467)
    CV[33] (24599.212243958911, -43047.365163426155, 19179.894660807215)
    CV[34] (24606.903680124917, -43000.137974110912, 19387.002485838373)
    CV[35] (24614.940551292118, -42950.78973433833, 19593.632629737767)
    CV[36] (24623.123466257468, -42900.544752012771, 19800.000000000007)
    CV[37] (24631.432458553649, -42849.525625841634, 20009.546952027838)
    CV[38] (24639.893418798158, -42797.573381471142, 20218.870991260319)
    CV[39] (24648.559432124042, -42744.362063959474, 20427.853054204745)
    CV[40] (24657.226937890231, -42691.141582520642, 20636.871107545456)
    CV[41] (24666.100840830142, -42636.653774904073, 20845.57061202962)
    CV[42] (24675.165854739549, -42580.992501923989, 21053.92909156104)
    CV[43] (24684.231392165359, -42525.328014432635, 21262.299604066993)
    CV[44] (24693.489406288834, -42468.481675692281, 21470.358278998083)
    CV[45] (24702.942970766126, -42410.434612746321, 21678.054721627788)
    CV[46] (24707.669022936334, -42381.415564061674, 21781.886903213101)
    CV[47] (24712.444138249735, -42352.095256379085, 21885.634223180132)
    CV[48] (24722.091840606994, -42292.856142142249, 22092.949440974273)
    CV[49] (24726.964594234098, -42262.936312728511, 22196.520912964461)
    CV[50] (24731.886285353226, -42232.715995843915, 22300.000000000007)
    CV[51] (24736.880110865462, -42202.052757173871, 22404.995720436928)
    CV[52] (24741.924564170895, -42171.078652194548, 22509.899919506333)
    CV[53] (24752.114686436482, -42108.508954807017, 22719.513767232966)
    CV[54] (24757.260539970684, -42076.912229071619, 22824.227190046975)
    CV[55] (24762.456716462388, -42045.006508788363, 22928.841414319071)
    CV[56] (24772.843590699693, -41981.228708984614, 23137.959559686624)
    CV[57] (24783.43228128631, -41916.211710319883, 23346.702967526155)
    CV[58] (24794.218859866254, -41849.979633804665, 23555.030352224792)
    CV[59] (24799.611448781361, -41816.867896010008, 23659.180517832294)
    CV[60] (24805.053868117822, -41783.450187952818, 23763.232508024717)
    CV[61] (24816.039552520004, -41715.995555837115, 23971.126135707167)
    CV[62] (24821.583017833815, -41681.957402209213, 24074.971535212404)
    CV[63] (24827.177383794435, -41647.606706888007, 24178.708174045052)
    CV[64] (24832.773105233431, -41613.247688617412, 24282.469947588583)
    CV[65] (24838.419870203066, -41578.575251313865, 24386.126909136656)
    CV[66] (24849.813387523591, -41508.61643115995, 24593.223652452485)
    CV[67] (24855.560349857253, -41473.328758966978, 24696.66723433623)
    CV[68] (24861.357203250696, -41437.734744177535, 24800)
    CV[69] (24867.24018485082, -41401.611882364668, 24904.868058208503)
    CV[70] (24873.174904560357, -41365.171336645246, 25009.625737302616)
    CV[71] (24885.155760287507, -41291.606123416845, 25218.889583948807)
    CV[72] (24891.202162782956, -41254.479819672604, 25323.400160911147)
    CV[73] (24897.307564741634, -41216.991245637168, 25427.773967058049)
    CV[74] (24903.413505003235, -41179.499366297801, 25532.156975666254)
    CV[75] (24909.578584554507, -41141.644358100712, 25636.407643366383)
    CV[76] (24921.982315654619, -41065.482592698616, 25844.734778472728)
    CV[77] (24928.221157434149, -41027.174667433384, 25948.814036725249)
    CV[78] (24934.475100694002, -40988.774015601244, 26052.857226905726)
    CV[79] (24946.984208273298, -40911.965214349882, 26260.963921319748)
    CV[80] (24959.5541638871, -40834.782792153965, 26468.93019294375)
    CV[81] (24972.178092992217, -40757.268960291884, 26676.767834913131)
    CV[82] (24978.491012296556, -40718.506181965044, 26780.702374724893)
    CV[83] (24984.817395624985, -40679.660731429765, 26884.605385882202)
    CV[84] (24997.496379594148, -40601.808850023896, 27092.349176595741)
    CV[85] (25003.848996361743, -40562.802320130722, 27196.190217877818)
    CV[86] (25010.214711042903, -40523.715366031982, 27299.999999999993)
    CV[87] (25023.019659911504, -40445.090031135194, 27508.818493871368)
    CV[88] (25035.878074379147, -40366.136405147714, 27717.511161577531)
    CV[89] (25061.709466234945, -40207.52571045822, 28134.619381410837)
    CV[90] (25074.682619531977, -40127.867561635154, 28343.037162335822)
    CV[91] (25087.713469601222, -40047.855141343767, 28551.31355791667)
    CV[92] (25100.750673822222, -39967.8037050973, 28759.691514011076)
    CV[93] (25113.84514089187, -39887.400661773143, 28967.931848649681)
    CV[94] (25140.138148017511, -39725.955543021701, 29384.155409136831)
    CV[95] (25153.33685187091, -39644.912461840599, 29592.140739406706)
    CV[96] (25166.586105455764, -39563.558993667364, 29800.000000000015)
    CV[97] (25179.896202689251, -39481.831931479872, 30008.8137985781)
    CV[98] (25193.25805753201, -39399.787065652206, 30217.500951565849)
    CV[99] (25213.386486029223, -39276.193879316226, 30530.316530648332)
    CV[100] (25220.110212046198, -39234.908653169492, 30634.553251650843)
    CV[101] (25233.586641755493, -39152.160271275956, 30842.953817451824)
    CV[102] (25240.339365322467, -39110.696993494203, 30947.117969184237)
    CV[103] (25247.106542869631, -39069.144964945575, 31051.245550215834)
    CV[104] (25253.878319704399, -39027.564695711888, 31155.443901179104)
    CV[105] (25260.664531477458, -38985.895792632946, 31259.606080889149)
    CV[106] (25274.263825981947, -38902.392992602443, 31467.862182836623)
    CV[107] (25281.076930798765, -38860.55896004157, 31571.95637644325)
    CV[108] (25294.72878595124, -38776.733425528291, 31780.079346979903)
    CV[109] (25301.56755398621, -38734.74181489792, 31884.10837392485)
    CV[110] (25315.270160119926, -38650.604657672404, 32092.102223941311)
    CV[111] (25322.134012502243, -38608.459023372765, 32196.067289859566)
    CV[112] (25329.010437119839, -38566.236192653247, 32300.000000000007)
    CV[113] (25335.918079640986, -38523.821676816791, 32404.404548559545)
    CV[114] (25342.83847574516, -38481.328851043516, 32508.776561755694)
    CV[115] (25350.530539558978, -38434.097807826169, 32624.521672521587)
    CV[116] (25351.288845652911, -38429.441633779577, 32635.929311553238)
    CV[117] (25352.047315004802, -38424.784457291549, 32647.336531650632)
