  
  Rhino 物体: 曲线
  开发人员除错信息
  使用 Rhino 的"What"指令。
  名称: ""
  ID:A45647A1-0537-4591-B2D4-8810E153FBB6
  图层索引: 5
  渲染材质索引: -1 (从图层)
  ON_NurbsCurve dim = 3 is_rat = 0
          order = 4 cv_count = 124
  Knot Vector ( 126 knots )
  index                     value  mult       delta
      0                        0     3
      3       1252.7370169811611     3        1253
      6       2505.5958144592969     3        1253
      9       2923.7548605113934     3       418.2
     12       3341.5871898438972     3       417.8
     15       3759.2659223543978     3       417.7
     18       4176.9639122759763     3       417.7
     21       4594.7240320145365     3       417.8
     24       5012.6920099207064     3         418
     27        5648.859595655048     3       636.2
     30       6285.1265184089461     3       636.3
     33       6921.5163147657313     3       636.4
     36       7557.7748178701213     3       636.3
     39       8203.2009062258476     3       645.4
     42       8848.6977261880875     3       645.5
     45       9494.2117539680021     3       645.5
     48       9816.9143793469448     2       322.7
     50       10139.619004608194     3       322.7
     53       10466.733863117168     2       327.1
     55       10793.850828867557     3       327.1
     58       11447.748824751525     3       653.9
     61       11774.633339186768     2       326.9
     63       12101.519934927053     3       326.9
     66       12428.484680442185     2         327
     68       12755.451557691806     3         327
     71       13086.934768666126     2       331.5
     73       13418.420216784571     3       331.5
     76       13749.913875133343     2       331.5
     78       14081.409808300872     3       331.5
     81       14744.437182992213     3         663
     84       15075.983827010383     2       331.5
     86       15407.530668472666     3       331.5
     89       16074.616916107221     2       667.1
     91        16741.70479008407     3       667.1
     94       17075.358468206934     2       333.7
     96       17409.012359275115     2       333.7
     98       17742.666439305161     2       333.7
    100       18076.320708927018     3       333.7
    103       18411.693853130429     2       335.4
    105       18747.067196672782     2       335.4
    107       19082.440766032356     2       335.4
    109       19417.814561236504     3       335.4
    112       19753.342519267371     2       335.5
    114       20088.870691108365     2       335.5
    116       20424.399049306066     2       335.5
    118        20759.92759357941     3       335.5
    121       21097.220031901503     2       337.3
    123       21227.660761253028     3       130.4
  Control Points  124 non-rational points
    index               value
    CV[ 0] (27240.738841783637, -43438.584296952919, 12300.000000000009)
    CV[ 1] (27234.752371362025, -43485.641799538709, 12714.897336810636)
    CV[ 2] (27230.290652448904, -43520.7137759295, 13130.930634371307)
    CV[ 3] (27227.401005949847, -43543.428253413673, 13547.90627149359)
    CV[ 4] (27224.513847888742, -43566.123170177212, 13964.522827322853)
    CV[ 5] (27223.191362139467, -43576.51875759074, 14382.759111706668)
    CV[ 6] (27223.476716692465, -43574.27568752275, 14800.000000000004)
    CV[ 7] (27223.572055716642, -43573.526261557068, 14939.403204604569)
    CV[ 8] (27223.846902359994, -43571.365790408046, 15078.734763959705)
    CV[ 9] (27224.30008496793, -43567.803484033371, 15218.093719701908)
    CV[10] (27224.752845700375, -43564.244493871018, 15357.322943793202)
    CV[11] (27225.383399741728, -43559.287934105123, 15496.514722794487)
    CV[12] (27226.192376758059, -43552.928855155966, 15635.642583068537)
    CV[13] (27227.001084476589, -43546.571893060485, 15774.72412950913)
    CV[14] (27227.987997915003, -43538.814119546354, 15913.724862720468)
    CV[15] (27229.152774530252, -43529.658227221895, 16052.647689355124)
    CV[16] (27230.317616726541, -43520.501819388337, 16191.578337835861)
    CV[17] (27231.660043853884, -43509.949479935043, 16330.395496595404)
    CV[18] (27233.180520026028, -43497.99756062981, 16469.110182867764)
    CV[19] (27234.70087323539, -43486.046607891018, 16607.81365111273)
    CV[20] (27236.39985798765, -43472.691496491112, 16746.470428069526)
    CV[21] (27238.273323085996, -43457.964857503408, 16884.902326602103)
    CV[22] (27240.149673551834, -43443.215537673954, 17023.547427345191)
    CV[23] (27242.197236978252, -43427.120374005346, 17161.685662450109)
    CV[24] (27244.428822480408, -43409.578678625243, 17300)
    CV[25] (27247.817710171501, -43382.939844712251, 17510.044273711155)
    CV[26] (27251.631806387599, -43352.958598683945, 17720.546168239725)
    CV[27] (27255.821747411996, -43320.022971059727, 17929.680392720638)
    CV[28] (27260.019755419962, -43287.023931763273, 18139.217267821979)
    CV[29] (27264.607824531242, -43250.958761661037, 18348.018941698156)
    CV[30] (27269.639954438266, -43211.402988486792, 18556.401046513492)
    CV[31] (27274.670038674594, -43171.863295598145, 18764.698439452652)
    CV[32] (27280.141162683467, -43128.85674682026, 18972.466390207566)
    CV[33] (27285.869036114367, -43083.831982676696, 19179.622840159798)
    CV[34] (27291.597169425801, -43038.805175705238, 19386.788689050201)
    CV[35] (27297.58716941591, -42991.719928443999, 19593.517606599522)
    CV[36] (27303.690543209152, -42943.743490270965, 19800.000000000007)
    CV[37] (27309.88223781102, -42895.072793814201, 20009.470362443615)
    CV[38] (27316.191693825749, -42845.476417014972, 20218.732044797754)
    CV[39] (27322.658739023595, -42794.641288017912, 20427.675045604788)
    CV[40] (27329.126592950051, -42743.799801894515, 20636.644175529225)
    CV[41] (27335.752887003375, -42691.712874608864, 20845.317483539828)
    CV[42] (27342.526218520303, -42638.470138418052, 21053.672362948157)
    CV[43] (27349.299909749392, -42585.224574658612, 21262.038307485029)
    CV[44] (27356.221689705693, -42530.814938386866, 21470.113683272899)
    CV[45] (27363.294140622056, -42475.220931594005, 21677.850020294267)
    CV[46] (27366.829905514554, -42447.427548539657, 21781.704660789143)
    CV[47] (27370.403446159686, -42419.337223806549, 21885.480041314735)
    CV[48] (27377.625399800025, -42362.568029578601, 22092.863397370445)
    CV[49] (27381.273932256674, -42333.888221040026, 22196.474799778247)
    CV[50] (27384.960044215473, -42304.913013477606, 22300.000000000004)
    CV[51] (27388.696578443407, -42275.541454493869, 22404.941319853042)
    CV[52] (27392.471920533342, -42245.864840788883, 22509.797462189599)
    CV[53] (27400.100242578854, -42185.901329888431, 22719.328371527889)
    CV[54] (27403.953354458776, -42155.613395682958, 22824.006737678199)
    CV[55] (27407.84499803387, -42125.022577604788, 22928.592749738171)
    CV[56] (27415.624273830857, -42063.872473261086, 23137.656970708562)
    CV[57] (27423.55795522701, -42001.508641734261, 23346.372925445685)
    CV[58] (27431.643385031159, -41937.951970253518, 23554.700705213792)
    CV[59] (27435.685464947488, -41906.178625908949, 23658.848234165456)
    CV[60] (27439.765751440234, -41874.104953333808, 23762.904240671935)
    CV[61] (27448.00346670092, -41809.351220352699, 23970.8204625053)
    CV[62] (27452.161038039034, -41776.670039253571, 24074.684251064009)
    CV[63] (27456.357419406544, -41743.683786395894, 24178.447119131724)
    CV[64] (27460.554858727035, -41710.689217348241, 24282.236146937128)
    CV[65] (27464.79119662962, -41677.388880460981, 24385.927997820309)
    CV[66] (27473.339628333841, -41610.192716662496, 24593.111451908255)
    CV[67] (27477.651869745354, -41576.295729442769, 24696.60660369162)
    CV[68] (27482.001762286422, -41542.102780161658, 24800.000000000007)
    CV[69] (27486.411793728406, -41507.437100492505, 24904.822848911524)
    CV[70] (27490.860790677711, -41472.465126908603, 25009.544540237395)
    CV[71] (27499.842483708919, -41401.863250798975, 25218.75808376804)
    CV[72] (27504.375364270647, -41366.231898143444, 25323.253971505073)
    CV[73] (27508.95237287899, -41330.253670698337, 25427.6254587164)
    CV[74] (27513.529569721817, -41294.27396360931, 25532.001238319201)
    CV[75] (27518.150968977974, -41257.946797160621, 25636.256711857561)
    CV[76] (27527.449737076906, -41184.852507363401, 25844.606596940794)
    CV[77] (27532.127239605474, -41148.084333158695, 25948.703580276415)
    CV[78] (27536.817007899925, -41111.219742155954, 26052.764966766714)
    CV[79] (27546.197103679337, -41037.486164553906, 26260.900147639579)
    CV[80] (27555.626613125081, -40963.364163796396, 26468.896789516068)
    CV[81] (27565.103325214368, -40888.871119942705, 26676.75637759153)
    CV[82] (27569.842171584532, -40851.620743742322, 26780.696926293975)
    CV[83] (27574.592791005602, -40814.277823800076, 26884.603922108967)
    CV[84] (27584.116964085933, -40739.411706072875, 27092.351522109602)
    CV[85] (27588.890532761241, -40701.888390252119, 27196.192451202089)
    CV[86] (27593.675560568608, -40664.274998293287, 27299.999999999993)
    CV[87] (27603.30324731689, -40588.59519664984, 27508.865361324399)
    CV[88] (27612.977735152446, -40512.547508400326, 27717.596553595358)
    CV[89] (27632.425645635321, -40359.674440735733, 28134.766254543229)
    CV[90] (27642.199220774004, -40282.847862640527, 28343.20750806381)
    CV[91] (27652.022042244545, -40205.634176746331, 28551.500944864285)
    CV[92] (27656.935098429421, -40167.014399508465, 28655.682555108437)
    CV[93] (27661.860419436893, -40128.298212887377, 28759.828009089266)
    CV[94] (27671.734554726307, -40050.681167418297, 28968.048560086179)
    CV[95] (27676.683386488352, -40011.780171165461, 29072.123995504997)
    CV[96] (27686.603949399432, -39933.798174769901, 29280.205936673497)
    CV[97] (27691.575696211297, -39894.717051507279, 29384.212764331347)
    CV[98] (27701.541878459222, -39816.376457823091, 29592.157781596037)
    CV[99] (27706.536328275339, -39777.116874365063, 29696.096288045912)
    CV[100] (27711.542209798296, -39737.767430348751, 29800.000000000007)
    CV[101] (27716.573891770735, -39698.215178228042, 29904.43923451073)
    CV[102] (27721.617173212275, -39658.571746829963, 30008.843537484954)
    CV[103] (27731.727981176158, -39579.094302126206, 30217.578022976344)
    CV[104] (27736.795526678357, -39539.260139626771, 30321.908543217087)
    CV[105] (27746.9554921329, -39459.396285472852, 30530.493097514805)
    CV[106] (27752.047930869398, -39419.366446162923, 30634.747494384221)
    CV[107] (27762.257812965185, -39339.110215147681, 30843.178950700436)
    CV[108] (27767.375274082147, -39298.883683855638, 30947.356384825296)
    CV[109] (27772.505048962055, -39258.560358477771, 31051.495477189081)
    CV[110] (27777.637195165047, -39218.218392977396, 31155.682709566641)
    CV[111] (27782.781636394968, -39177.779780668272, 31259.832075416842)
    CV[112] (27793.093787049449, -39096.719653095271, 31468.058045021415)
    CV[113] (27798.261515544818, -39056.097987922512, 31572.134980468516)
    CV[114] (27808.619571508712, -38974.677015132846, 31780.217841726742)
    CV[115] (27813.809914761507, -38933.877583441463, 31884.224083368637)
    CV[116] (27824.213105157771, -38852.10182502379, 32092.165518191057)
    CV[117] (27829.42596550244, -38811.125394527691, 32196.101028869769)
    CV[118] (27834.650331492401, -38770.058522269537, 32300.000000000011)
    CV[119] (27839.902174569543, -38728.775662457796, 32404.445418506464)
    CV[120] (27845.165709879264, -38687.400894188097, 32508.854083388283)
    CV[121] (27852.481710463762, -38629.892430573302, 32653.58662143497)
    CV[122] (27854.523812102827, -38613.840200061415, 32693.943645421547)
    CV[123] (27856.567746253717, -38597.773564829491, 32734.29484198647)
