  
  Rhino 物体: 曲线
  开发人员除错信息
  使用 Rhino 的"What"指令。
  名称: ""
  ID:3C6642C1-56B7-420f-994F-BDAA359CCC82
  图层索引: 5
  渲染材质索引: -1 (从图层)
  ON_NurbsCurve dim = 3 is_rat = 0
          order = 4 cv_count = 32
  Knot Vector ( 34 knots )
  index                     value  mult       delta
      0      -24497.023300564735     3
      3      -23213.844646922065     1        1283
      4      -21930.665993279392     1        1283
      5      -21501.116020030284     1       429.5
      6      -21071.566046781176     1       429.5
      7      -20642.016073532068     1       429.5
      8      -20212.466100282963     1       429.5
      9      -19782.916127033855     1       429.5
     10      -19353.366153784747     1       429.5
     11      -18703.765285119742     1       649.6
     12       -18054.16441645474     1       649.6
     13      -17404.563547789738     1       649.6
     14      -16754.962679124736     1       649.6
     15      -16096.754733988553     1       658.2
     16      -15438.546788852371     1       658.2
     17      -14780.338843716187     1       658.2
     18      -14122.130898580004     1       658.2
     19      -13451.571642368992     1       670.6
     20       -12781.01238615798     1       670.6
     21      -12110.453129946967     1       670.6
     22      -11439.893873735955     1       670.6
     23      -10754.751299644253     1       685.1
     24      -10069.608725552549     1       685.1
     25       -9384.466151460847     1       685.1
     26      -8699.3235773691449     1       685.1
     27      -7299.4867151462568     1        1400
     28      -5899.6498529233686     1        1400
     29      -4459.9412057943127     1        1440
     30      -3020.2325586652573     1        1440
     31      -2414.8623790525417     3       605.4
  Control Points  32 non-rational points
    index               value
    CV[ 0] (30270.982559914984, -43265.856633468735, 12300.000000000007)
    CV[ 1] (30266.48732541085, -43317.237097135774, 12714.538713258515)
    CV[ 2] (30259.584512600115, -43396.136605528998, 13546.220215122923)
    CV[ 3] (30256.567904017338, -43430.616601423259, 14523.550473870109)
    CV[ 4] (30256.856184696629, -43427.321542297366, 15217.900969326896)
    CV[ 5] (30257.761246972485, -43416.976636429645, 15635.3676781249)
    CV[ 6] (30259.399715073872, -43398.248864423447, 16052.317143500488)
    CV[ 7] (30261.770753760953, -43371.147773113393, 16468.835543313638)
    CV[ 8] (30264.875950283822, -43335.655220151173, 16884.88782043229)
    CV[ 9] (30269.356390699675, -43284.443559454761, 17370.536186513655)
    CV[10] (30275.778466629337, -43211.038905865687, 17930.030024161879)
    CV[11] (30284.62095919421, -43109.968766427846, 18556.410294706438)
    CV[12] (30295.257522090578, -42988.392311799718, 19179.710894966545)
    CV[13] (30306.975106231956, -42854.459726840243, 19802.899744290367)
    CV[14] (30319.248155548514, -42714.178142218843, 20427.85718192788)
    CV[15] (30332.229381358815, -42565.802060221729, 21053.820578935887)
    CV[16] (30345.81662369788, -42410.499174345219, 21677.75290327577)
    CV[17] (30360.15282779159, -42246.635613225182, 22305.223350129247)
    CV[18] (30375.064154762033, -42076.198364266202, 22928.482092296636)
    CV[19] (30390.737807438782, -41897.04768927773, 23555.004364628407)
    CV[20] (30407.011598929272, -41711.037392970145, 24178.15413582333)
    CV[21] (30424.125081057344, -41515.429385221403, 24806.423072432997)
    CV[22] (30441.723648161042, -41314.27682779693, 25427.514574670447)
    CV[23] (30460.2349896171, -41102.691207345728, 26053.135433132062)
    CV[24] (30478.911730431522, -40889.215065927594, 26676.371153674976)
    CV[25] (30504.505816564972, -40596.673302845746, 27519.685073521399)
    CV[26] (30536.297298452235, -40233.294983492437, 28547.927856458711)
    CV[27] (30576.67435909505, -39771.783055101499, 29821.945066918597)
    CV[28] (30616.415670276576, -39317.537786028362, 31046.165053740551)
    CV[29] (30650.473029672037, -38928.260391633514, 32070.446139602245)
    CV[30] (30669.713872991997, -38708.336551788001, 32639.91077513323)
    CV[31] (30675.389710519201, -38643.461720062376, 32807.085034718672)
