  
  Rhino 物体: 曲线
  开发人员除错信息
  使用 Rhino 的"What"指令。
  名称: ""
  ID:AA0B57F9-D0F2-40b0-A3ED-0F1F067FD6AA
  图层索引: 5
  渲染材质索引: -1 (从图层)
  ON_NurbsCurve dim = 3 is_rat = 0
          order = 4 cv_count = 126
  Knot Vector ( 128 knots )
  index                     value  mult       delta
      0                        0     3
      3       1256.8712287613077     3        1257
      6       2513.8019784953185     3        1257
      9       2931.0701807204268     3       417.3
     12       3348.0235249665884     3         417
     15       3764.8153285628105     3       416.8
     18       4181.5936102725136     3       416.8
     21       4598.4613258126901     3       416.9
     24       5015.4955252127356     3         417
     27       5645.8923071914369     3       630.4
     30       6276.2573082142781     3       630.4
     33       6906.6751524488072     3       630.4
     36       7537.0212982083822     3       630.3
     39       8173.9409000776741     3       636.9
     42       8810.8537181081592     3       636.9
     45       9447.8232819566492     3         637
     48       9766.2722791894939     2       318.4
     50       10084.723585752179     3       318.5
     53       10406.792491928451     2       322.1
     55       10728.863797270715     3       322.1
     58       11372.843527734953     3         644
     61       11694.824796212368     2         322
     63          12016.808429674     3         322
     66       12338.828224053599     2         322
     68        12660.85053505959     3         322
     71       12986.832187025839     2         326
     73       13312.816479062363     3         326
     76        13638.82185952932     2         326
     78       13964.829736419839     3         326
     81       14616.801397460142     3         652
     84       14942.784305649961     2         326
     86       15268.767514709023     3         326
     89       15596.773375270082     2         328
     91       15924.779519362773     2         328
     93        16252.78597144346     2         328
     95       16580.792731991569     3         328
     98       16908.788290901666     2         328
    100       17236.784144615405     2         328
    102        17564.78027417267     2         328
    104       17892.776678357422     3         328
    107         18222.6670348181     2       329.9
    109        18552.55769005575     2       329.9
    111       18882.448665862241     2       329.9
    113       19212.339964434475     3       329.9
    116       19542.238970549064     2       329.9
    118       19872.138273030236     2       329.9
    120       20202.037851549332     2       329.9
    122       20531.937702906314     3       329.9
    125       20567.876791026607     3       35.94
  Control Points  126 non-rational points
    index               value
    CV[ 0] (54390.317179605961, -36427.621442745934, 12299.999999999996)
    CV[ 1] (54406.170535695142, -36490.044181513229, 12714.219374166965)
    CV[ 2] (54419.202417261309, -36541.357337798596, 13129.331518093242)
    CV[ 3] (54429.345896232509, -36581.297381688913, 13546.501469144587)
    CV[ 4] (54439.459732841802, -36621.120708500333, 13962.452321433231)
    CV[ 5] (54446.74898954315, -36649.822225347358, 14382.38762857801)
    CV[ 6] (54451.04796511164, -36666.749482097861, 14799.999999999996)
    CV[ 7] (54452.479453513894, -36672.385981150794, 14939.05807483786)
    CV[ 8] (54453.579745025781, -36676.718389331654, 15077.895140068962)
    CV[ 9] (54454.356633504372, -36679.777395025929, 15217.038926841193)
    CV[10] (54455.13231334259, -36682.831641687371, 15355.966241361864)
    CV[11] (54455.584380438726, -36684.611660131915, 15494.981328391892)
    CV[12] (54455.710064109837, -36685.106540769484, 15633.943468532834)
    CV[13] (54455.835726545185, -36685.601337791049, 15772.882129357517)
    CV[14] (54455.635138009719, -36684.811518545299, 15911.7923532327)
    CV[15] (54455.108848735239, -36682.739249575126, 16050.715492487467)
    CV[16] (54454.582620127818, -36680.667219482064, 16189.622617624631)
    CV[17] (54453.730887131111, -36677.313512793466, 16328.510651319282)
    CV[18] (54452.553607480688, -36672.677963092763, 16467.351877512796)
    CV[19] (54451.3760063929, -36668.041147729404, 16606.231012081396)
    CV[20] (54449.872866008336, -36662.122518321936, 16745.041477176692)
    CV[21] (54448.045501392407, -36654.927252952832, 16883.804527702243)
    CV[22] (54446.217740095723, -36647.730425649512, 17022.597700641065)
    CV[23] (54444.065220277807, -36639.254858613138, 17161.373319366634)
    CV[24] (54441.587338530415, -36629.498175918096, 17300)
    CV[25] (54437.840865596227, -36614.746403488716, 17509.598826697715)
    CV[26] (54433.349818745322, -36597.062864256492, 17718.900991781131)
    CV[27] (54428.138449276405, -36576.543047938219, 17927.982050919854)
    CV[28] (54422.928225922704, -36556.027744459396, 18137.017127714666)
    CV[29] (54416.999090837031, -36532.681719271604, 18345.787306498703)
    CV[30] (54410.262096698076, -36506.154741460268, 18554.102962075984)
    CV[31] (54403.523663560976, -36479.622097580206, 18762.463113141192)
    CV[32] (54395.978014907058, -36449.911035007492, 18970.337535998256)
    CV[33] (54387.994271959964, -36418.474972033306, 19177.964092720613)
    CV[34] (54380.011838596416, -36387.044065556671, 19385.55659219377)
    CV[35] (54371.592515110176, -36353.892900111146, 19592.888369156997)
    CV[36] (54362.898122193095, -36319.658646193537, 19800.000000000007)
    CV[37] (54354.11263430494, -36285.065704970206, 20009.281630312886)
    CV[38] (54345.04350945889, -36249.355940556394, 20218.379128935565)
    CV[39] (54335.647808630805, -36212.360280140507, 20427.217290764158)
    CV[40] (54326.25198840932, -36175.364149611989, 20636.058106348795)
    CV[41] (54316.529147873865, -36137.080373520264, 20844.669749758654)
    CV[42] (54306.492593126182, -36097.561344766102, 21053.011647998814)
    CV[43] (54296.454844770786, -36058.037616170353, 21261.378323515895)
    CV[44] (54286.101022980089, -36017.269345449109, 21469.50723577672)
    CV[45] (54275.42811303513, -35975.244662118144, 21677.346050919092)
    CV[46] (54270.092014589929, -35954.233724282174, 21781.258515659603)
    CV[47] (54264.676051346774, -35932.908318052803, 21885.104989499614)
    CV[48] (54253.686688619222, -35889.637598912828, 22092.656161775521)
    CV[49] (54248.113077188907, -35867.691451463164, 22196.364857202199)
    CV[50] (54242.460495200197, -35845.434356696802, 22300)
    CV[51] (54236.74361795983, -35822.92409877207, 22404.813939956359)
    CV[52] (54230.945526567819, -35800.094059361072, 22509.556553451872)
    CV[53] (54219.186287544137, -35753.791945061203, 22718.886234136829)
    CV[54] (54213.224903407296, -35730.318938931006, 22823.477460543618)
    CV[55] (54207.182797099304, -35706.52808849237, 22927.989048012838)
    CV[56] (54195.101665227688, -35658.958518075044, 23136.958934665974)
    CV[57] (54182.697455974216, -35610.116827426828, 23345.634478844586)
    CV[58] (54169.976340863272, -35560.027316982974, 23553.970160790421)
    CV[59] (54163.615659806339, -35534.982075472886, 23658.14002436597)
    CV[60] (54157.175171068549, -35509.622590468498, 23762.2312466275)
    CV[61] (54144.131055078331, -35458.261261023355, 23970.240506047434)
    CV[62] (54137.527162589009, -35432.258372209806, 24074.162717036234)
    CV[63] (54130.840307198639, -35405.928816192783, 24177.994037116223)
    CV[64] (54124.152598671979, -35379.595900943612, 24281.838604419539)
    CV[65] (54117.381820313356, -35352.935897449424, 24385.596740117824)
    CV[66] (54103.678109875931, -35298.977408662206, 24592.931498343532)
    CV[67] (54096.744893937059, -35271.677805667459, 24696.512393335663)
    CV[68] (54089.73067738246, -35244.059261986113, 24800.000000000015)
    CV[69] (54082.630112632898, -35216.100721474628, 24904.76158615547)
    CV[70] (54075.445956836753, -35187.81304043073, 25009.431705817733)
    CV[71] (54060.901358669034, -35130.543548293434, 25218.56471205948)
    CV[72] (54053.540565697651, -35101.560356709997, 25323.032340183971)
    CV[73] (54046.088670148689, -35072.218447870167, 25427.389376113199)
    CV[74] (54038.636150866783, -35042.874083076, 25531.755146856398)
    CV[75] (54031.092442611756, -35013.170660842174, 25636.014963837217)
    CV[76] (54015.89029972611, -34953.312080191143, 25844.39191219852)
    CV[77] (54008.23161136311, -34923.15592270036, 25948.511905819916)
    CV[78] (54000.548318237197, -34892.902883724033, 26052.600984592391)
    CV[79] (53985.182671247414, -34832.400504124525, 26260.766417525676)
    CV[80] (53969.717902281598, -34771.507830811744, 26468.8127212203)
    CV[81] (53954.137933314458, -34710.161556409817, 26676.71434471423)
    CV[82] (53946.347979247708, -34679.488538975384, 26780.6647505742)
    CV[83] (53938.529308554324, -34648.702449553326, 26884.579862241571)
    CV[84] (53922.837020021951, -34586.913915806472, 27092.341032287379)
    CV[85] (53914.963362409719, -34555.911314874094, 27196.187582272007)
    CV[86] (53907.062776003891, -34524.802681563575, 27300.000000000007)
    CV[87] (53899.113147276279, -34493.500943649575, 27404.456825843317)
    CV[88] (53891.136131645966, -34462.091369548521, 27508.879470979806)
    CV[89] (53875.125637983452, -34399.049900107697, 27717.652770163706)
    CV[90] (53867.092118954279, -34367.417843341929, 27822.003915208959)
    CV[91] (53850.967667512312, -34303.927664072267, 28030.632414352254)
    CV[92] (53842.876694019898, -34272.069379816996, 28134.910281862689)
    CV[93] (53826.637255695969, -34208.126438617663, 28343.391533475118)
    CV[94] (53818.488751025463, -34176.041624807287, 28447.595438668028)
    CV[95] (53810.311904286951, -34143.845213837456, 28551.762286007732)
    CV[96] (53802.135306919103, -34111.64978476696, 28655.925956553656)
    CV[97] (53793.930404738494, -34079.342905229933, 28760.053177713628)
    CV[98] (53777.465762465174, -34014.513221360932, 28968.235492300908)
    CV[99] (53769.205981883126, -33981.990257601741, 29072.291070502048)
    CV[100] (53752.63236332871, -33916.731478600545, 29280.33062751091)
    CV[101] (53744.318488080935, -33883.995516586256, 29384.315076907489)
    CV[102] (53727.636578475816, -33818.310340554002, 29592.211738647537)
    CV[103] (53719.268508908535, -33785.360987896602, 29696.124423396086)
    CV[104] (53710.872852721928, -33752.303012666089, 29800)
    CV[105] (53702.428687979627, -33719.054034541106, 29904.475750560679)
    CV[106] (53693.956495212835, -33685.694695806014, 30008.914345039284)
    CV[107] (53676.954262580854, -33618.748244841532, 30217.713233228842)
    CV[108] (53668.424176375731, -33585.160950148202, 30322.074039638737)
    CV[109] (53651.30534671159, -33517.755397272515, 30530.715630920553)
    CV[110] (53642.716558024003, -33483.936961002146, 30634.996951533863)
    CV[111] (53625.480654477258, -33416.070428612147, 30843.479405937447)
    CV[112] (53616.833497360072, -33382.022166101102, 30947.681078804922)
    CV[113] (53608.157907838162, -33347.861950728911, 31051.843316475668)
    CV[114] (53599.482083142131, -33313.700809356407, 31156.00837773121)
    CV[115] (53590.777887666809, -33279.427957773529, 31260.13466201098)
    CV[116] (53573.315052293154, -33210.667879179819, 31468.311299922887)
    CV[117] (53564.556368238242, -33176.180478302056, 31572.362132963583)
    CV[118] (53546.985373763113, -33106.994522228619, 31780.38852105142)
    CV[119] (53538.173025577926, -33072.295818333005, 31884.364543000593)
    CV[120] (53520.494171249913, -33002.685163073977, 32092.240057228137)
    CV[121] (53511.627632301796, -32967.773082539432, 32196.14002916657)
    CV[122] (53502.733016157144, -32932.750447779355, 32299.999999999993)
    CV[123] (53501.764038700676, -32928.93508992729, 32311.314481561676)
    CV[124] (53500.794726094231, -32925.118412419019, 32322.628492263677)
    CV[125] (53499.82507861597, -32921.300416349797, 32333.942031339975)
