  
  Rhino 物体: 曲线
  开发人员除错信息
  使用 Rhino 的"What"指令。
  名称: ""
  ID:DCD53A62-7C4F-4f58-AEAD-A7EB616EC036
  图层索引: 5
  渲染材质索引: -1 (从图层)
  ON_NurbsCurve dim = 3 is_rat = 0
          order = 4 cv_count = 64
  Knot Vector ( 66 knots )
  index                     value  mult       delta
      0                        0     3
      3       1263.1895728893919     3        1263
      6       2526.5214891957285     3        1263
      9        2943.403311546122     3       416.9
     12       3360.8170794238786     3       417.4
     15       3777.8777401301768     3       417.1
     18       4195.1421522871906     3       417.3
     21       4612.4240598090801     3       417.3
     24       5029.5713655743693     3       417.1
     27       5659.8331710572311     3       630.3
     30       6290.1175090783954     3       630.3
     33       6920.4118125719724     3       630.3
     36       7550.8369942942882     3       630.4
     39       8190.0623044710319     3       639.2
     42       8829.5815571772091     3       639.5
     45       9468.7853663606311     3       639.2
     48        10108.10507397553     3       639.3
     51       10759.989294402028     3       651.9
     54        11411.99312337212     3         652
     57       12063.997029848791     3         652
     60       12716.048525146076     3       652.1
     63       13213.754748428528     3       497.7
  Control Points  64 non-rational points
    index               value
    CV[ 0] (-20135.802584076351, -2835.3335964085591, 12300.000000000004)
    CV[ 1] (-20212.969052981898, -2883.0856563613133, 12711.58234217851)
    CV[ 2] (-20275.846083218745, -2921.9951433458273, 13125.270072682182)
    CV[ 3] (-20324.059873333637, -2951.8307420037631, 13542.91699476236)
    CV[ 4] (-20372.022742628065, -2981.5110661463277, 13958.390341438047)
    CV[ 5] (-20405.875489874696, -3002.459781812775, 14381.279352034886)
    CV[ 6] (-20424.429140034197, -3013.9411289227928, 14799.999999999996)
    CV[ 7] (-20430.587642257971, -3017.75212574019, 14938.985699280945)
    CV[ 8] (-20435.056147453528, -3020.5173206625955, 15077.419554364942)
    CV[ 9] (-20437.922729236678, -3022.2912152972726, 15216.552725496469)
    CV[10] (-20440.786325210458, -3024.0632622570452, 15355.540976595339)
    CV[11] (-20442.044396359946, -3024.8417803077896, 15494.888872569387)
    CV[12] (-20441.702829847494, -3024.6304125361171, 15633.917269471673)
    CV[13] (-20441.361163077665, -3024.4189827232963, 15772.986474304034)
    CV[14] (-20439.418551956289, -3023.2168584839892, 15911.888397140319)
    CV[15] (-20435.800712592521, -3020.9780715516808, 16050.893471324034)
    CV[16] (-20432.183137882072, -3018.7394483918165, 16189.888376964944)
    CV[17] (-20426.892943514144, -3015.4657767802742, 16328.895414891154)
    CV[18] (-20420.292256050358, -3011.3811474332201, 16467.7368349272)
    CV[19] (-20413.690118360508, -3007.2956206590457, 16606.608759580799)
    CV[20] (-20405.772064869103, -3002.3957804772481, 16745.408950620462)
    CV[21] (-20397.23577793916, -2997.1133658348017, 16884.127143244812)
    CV[22] (-20388.701581270358, -2991.8322446851985, 17022.811368261224)
    CV[23] (-20379.547647961277, -2986.1676188654851, 17161.451259669702)
    CV[24] (-20369.584876108034, -2980.002468566669, 17299.999999999993)
    CV[25] (-20354.528999868919, -2970.6856096380639, 17509.376739548523)
    CV[26] (-20337.632325934912, -2960.229630530268, 17718.447942574585)
    CV[27] (-20318.770640331142, -2948.557665303199, 17927.398405699445)
    CV[28] (-20299.913179652325, -2936.8883145390232, 18136.302064946631)
    CV[29] (-20279.099147364348, -2924.0082005235608, 18345.001295722101)
    CV[30] (-20256.381448347209, -2909.9500617899748, 18553.372884508164)
    CV[31] (-20233.661415621453, -2895.8904789136759, 18761.765878568222)
    CV[32] (-20209.034516832886, -2880.6508915115182, 18969.856938866342)
    CV[33] (-20182.50627210821, -2864.234715541555, 19177.626685136114)
    CV[34] (-20155.971627960058, -2847.8145794881789, 19385.446551819277)
    CV[35] (-20127.540985929496, -2830.2211643430519, 19592.895891428176)
    CV[36] (-20097.229038608813, -2811.4635621581747, 19800.000000000004)
    CV[37] (-20066.495972479268, -2792.4453637468114, 20009.981371275859)
    CV[38] (-20033.833320335143, -2772.2331012768072, 20219.578088063805)
    CV[39] (-19999.222290662583, -2750.8151462065321, 20428.723466946867)
    CV[40] (-19964.59936283774, -2729.3898283362082, 20637.940743244995)
    CV[41] (-19928.012697752438, -2706.7493129750183, 20846.791104793341)
    CV[42] (-19889.899644738842, -2683.1642401020399, 21055.166070718646)
    CV[43] (-19851.796532649158, -2659.5853188594438, 21263.486686768581)
    CV[44] (-19812.162968844994, -2635.0593253578572, 21471.358751637628)
    CV[45] (-19770.906859431809, -2609.5292701660446, 21678.847443493687)
    CV[46] (-19729.643356816519, -2583.9946399219443, 21886.373317862952)
    CV[47] (-19686.78020755907, -2557.4701182982994, 22093.397598440541)
    CV[48] (-19642.29171775392, -2529.93980542389, 22300)
    CV[49] (-19596.938671453798, -2501.8744887561743, 22510.617360235927)
    CV[50] (-19549.893277779014, -2472.7619157549534, 22720.811251216663)
    CV[51] (-19501.042381959389, -2442.5320641236708, 22930.344655194946)
    CV[52] (-19452.17324126466, -2412.2909222210824, 23139.956315891348)
    CV[53] (-19401.491208082807, -2380.9279284058612, 23348.932910899533)
    CV[54] (-19349.017652822018, -2348.4563070878694, 23557.33595164866)
    CV[55] (-19296.561667187496, -2315.9955581845252, 23765.669213181911)
    CV[56] (-19242.285830397468, -2282.4086512138847, 23973.546569571365)
    CV[57] (-19186.311894128572, -2247.7709283996442, 24180.609795023294)
    CV[58] (-19130.26223157869, -2213.0863447407796, 24387.953153141192)
    CV[59] (-19072.636604639545, -2177.4265247251533, 24594.011258419832)
    CV[60] (-19013.084572127642, -2140.5746087680091, 24799.999999999996)
    CV[61] (-18967.723569248537, -2112.5043684198154, 24956.902384448647)
    CV[62] (-18921.242392677341, -2083.740943556882, 25113.773131942875)
    CV[63] (-18873.827376941663, -2054.3996414837911, 25270.048712161537)
