  
  Rhino 物体: 曲线
  开发人员除错信息
  使用 Rhino 的"What"指令。
  名称: ""
  ID:188580DF-84E3-4ebc-AEC0-3E328CEA4800
  图层索引: 5
  渲染材质索引: -1 (从图层)
  ON_NurbsCurve dim = 3 is_rat = 0
          order = 4 cv_count = 121
  Knot Vector ( 123 knots )
  index                     value  mult       delta
      0                        0     3
      3       1255.5997230859598     3        1256
      6       2510.8495807733634     3        1255
      9       2928.1695546653309     3       417.3
     12       3345.2340335552635     3       417.1
     15       3762.1759552220965     3       416.9
     18       4179.1746054263804     3         417
     21       4596.0695885502155     3       416.9
     24       5013.1845374566537     3       417.1
     27       5643.9318730435079     3       630.7
     30       6274.9477834487134     3         631
     33       6905.8334486173198     3       630.9
     36       7536.6485267723365     3       630.8
     39        8174.782381410886     3       638.1
     42       8812.7275565296422     3       637.9
     45       9450.5620539025858     3       637.8
     48       9769.5170518430568     2         319
     50       10088.475214219057     3         319
     53       10411.813053160524     2       323.3
     55       10735.154265876172     3       323.3
     58       11058.561014802088     2       323.4
     60        11381.97110629865     3       323.4
     63       11705.275681201989     2       323.3
     65       12028.583834910885     3       323.3
     68       12351.904212134637     2       323.3
     70       12675.226202859223     3       323.3
     73        13002.20597090698     2         327
     75       13329.186802157694     3         327
     78       13983.061121553441     3       653.9
     81        14636.82890574456     3       653.8
     84       14963.721821772404     2       326.9
     86       15290.615180641438     3       326.9
     89         15619.9320683763     2       329.3
     91       15949.249404772836     2       329.3
     93       16278.567205202362     2       329.3
     95       16607.885473051636     3       329.3
     98       16937.122734143093     2       329.2
    100       17266.360431037276     2       329.2
    102       17595.598555359655     2       329.2
    104       17924.837102739522     3       329.2
    107       18256.595191409804     2       331.8
    109       18588.353752571602     2       331.8
    111       18920.112795115565     2       331.8
    113       19251.872325129036     3       331.8
    116       19583.579931222786     2       331.7
    118       19915.287973724338     2       331.7
    120       20048.995868597682     3       133.7
  Control Points  121 non-rational points
    index               value
    CV[ 0] (61178.139466183682, -32488.948743693232, 12300.000000000007)
    CV[ 1] (61198.811977377329, -32544.239886368985, 12714.529398521985)
    CV[ 2] (61215.464893871969, -32588.78013468461, 13129.991487304707)
    CV[ 3] (61228.023196695329, -32622.368841284762, 13547.167129497466)
    CV[ 4] (61240.548325796452, -32655.868820734537, 13963.240770163795)
    CV[ 5] (61249.047015340177, -32678.599598418823, 14382.571445673453)
    CV[ 6] (61253.35308620955, -32690.116708100373, 14799.999999999993)
    CV[ 7] (61254.788201357871, -32693.955097915656, 14939.119410671254)
    CV[ 8] (61255.75786627872, -32696.548584550354, 15078.052320980447)
    CV[ 9] (61256.268042861178, -32697.913113801114, 15217.224421224309)
    CV[10] (61256.777568894293, -32699.275903078626, 15356.219056799919)
    CV[11] (61256.828144027953, -32699.411172417957, 15495.278932556565)
    CV[12] (61256.416617120616, -32698.310493708181, 15634.276243524964)
    CV[13] (61256.0051137556, -32697.209877965201, 15773.26560283903)
    CV[14] (61255.131549167039, -32694.873423344376, 15912.196477883479)
    CV[15] (61253.795123728763, -32691.298991148353, 16051.138411815733)
    CV[16] (61252.458824545771, -32687.724896637428, 16190.067219573553)
    CV[17] (61250.659738007525, -32682.913021121156, 16329.008534430759)
    CV[18] (61248.399450630903, -32676.867607931708, 16467.839790111095)
    CV[19] (61246.139096905434, -32670.822017284212, 16606.675121066768)
    CV[20] (61243.417813611319, -32663.54361450738, 16745.382058498624)
    CV[21] (61240.232884063742, -32655.02513349762, 16884.069479163096)
    CV[22] (61237.047233445097, -32646.504723895676, 17022.788298791133)
    CV[23] (61233.397927368889, -32636.744211443365, 17161.478852790624)
    CV[24] (61229.290735360511, -32625.759027437183, 17299.999999999985)
    CV[25] (61223.078214567708, -32609.142885822192, 17509.526485619743)
    CV[26] (61215.817122791741, -32589.722213722605, 17718.697523649542)
    CV[27] (61207.578412849929, -32567.686783068351, 17927.65250904506)
    CV[28] (61199.33870526019, -32545.648684083517, 18136.632797371349)
    CV[29] (61190.12116124569, -32520.995242783956, 18345.396449136639)
    CV[30] (61180.066079186639, -32494.101704232427, 18553.72628202301)
    CV[31] (61170.010061002693, -32467.205661901135, 18762.075510349649)
    CV[32] (61159.115333260335, -32438.066388961648, 18970.011881538241)
    CV[33] (61147.60536464279, -32407.281579556307, 19177.744429863626)
    CV[34] (61136.098166598684, -32376.504180386226, 19385.426974726772)
    CV[35] (61123.979456870155, -32344.091218924044, 19592.853308815422)
    CV[36] (61111.362496703834, -32310.345626133909, 19800)
    CV[37] (61098.598515802863, -32276.20680852751, 20009.560494376186)
    CV[38] (61085.320495053529, -32240.69312889635, 20218.883821607978)
    CV[39] (61071.504653587443, -32203.740982418771, 20427.891411387784)
    CV[40] (61057.692384372393, -32166.798390360575, 20636.84495975573)
    CV[41] (61043.340566407045, -32128.412709620319, 20845.526463017592)
    CV[42] (61028.461250377179, -32088.616171221154, 21053.873129213116)
    CV[43] (61013.583914901355, -32048.824930054408, 21262.192062827904)
    CV[44] (60998.175111203484, -32007.612212560096, 21470.220209544786)
    CV[45] (60982.23782074303, -31964.98599301379, 21677.890313785902)
    CV[46] (60974.267731192478, -31943.669020230456, 21781.744186053671)
    CV[47] (60966.16510356302, -31921.997558253108, 21885.517464052406)
    CV[48] (60949.696335836365, -31877.949838189554, 22092.887614621875)
    CV[49] (60941.329757910993, -31855.572409078723, 22196.489995222062)
    CV[50] (60932.830349838761, -31832.839709602642, 22300)
    CV[51] (60924.214063181345, -31809.79440415098, 22404.933410126698)
    CV[52] (60915.460526106821, -31786.382005784333, 22509.77743007481)
    CV[53] (60897.680513678773, -31738.827202464741, 22719.270427105679)
    CV[54] (60888.653544747882, -31714.68347737916, 22823.925194273863)
    CV[55] (60879.492162899878, -31690.180248617064, 22928.480292509059)
    CV[56] (60870.328737052369, -31665.671552929958, 23033.058718073349)
    CV[57] (60861.030528762734, -31640.802365226726, 23137.543395639448)
    CV[58] (60842.154677052757, -31590.316606614884, 23346.300581781765)
    CV[59] (60832.576490096879, -31564.69858195445, 23450.57912452615)
    CV[60] (60822.85250003371, -31538.69058917003, 23554.742702747186)
    CV[61] (60813.131457620482, -31512.690480233472, 23658.874705682476)
    CV[62] (60803.263975124035, -31486.298699503517, 23762.897684689407)
    CV[63] (60783.285336163273, -31432.863402412648, 23970.74613320754)
    CV[64] (60773.173717446938, -31405.818649702585, 24074.576763518337)
    CV[65] (60762.965060667513, -31378.514356903732, 24178.326880135155)
    CV[66] (60752.75583866614, -31351.208552350105, 24282.082741077043)
    CV[67] (60742.449445295191, -31323.642851163284, 24385.761768703291)
    CV[68] (60721.668735454812, -31268.062318061853, 24592.979552709137)
    CV[69] (60711.194134275451, -31240.046724655927, 24696.520687697004)
    CV[70] (60700.646743812642, -31211.836447468348, 24799.999999999993)
    CV[71] (60689.979943478458, -31183.306794072767, 24904.650829695376)
    CV[72] (60679.238248586284, -31154.576826082914, 25009.24024918396)
    CV[73] (60657.593810194288, -31096.686146036445, 25218.281146120498)
    CV[74] (60646.69084168016, -31067.52483215175, 25322.734552421076)
    CV[75] (60635.703344303314, -31038.137435554316, 25427.114059390966)
    CV[76] (60613.731266270494, -30979.37044348376, 25635.845364938577)
    CV[77] (60591.421713685166, -30919.700834722949, 25844.291636669859)
    CV[78] (60568.928084953703, -30859.538891946067, 26052.567102923011)
    CV[79] (60546.437802468099, -30799.385899110264, 26260.811585250682)
    CV[80] (60523.761211006698, -30738.734600284155, 26468.894582230267)
    CV[81] (60500.887279699789, -30677.555492066549, 26676.796892514012)
    CV[82] (60489.449905209636, -30646.964844474325, 26780.75176359318)
    CV[83] (60477.963290328771, -30616.242497474992, 26884.662794085456)
    CV[84] (60454.893820214966, -30554.540396962471, 27092.396885424125)
    CV[85] (60443.31088244867, -30523.560422703842, 27196.220688221718)
    CV[86] (60431.679779481958, -30492.45162476513, 27300)
    CV[87] (60419.962398248659, -30461.112065120549, 27404.549135513273)
    CV[88] (60408.195903373184, -30429.641145073165, 27509.053733895205)
    CV[89] (60384.562894945389, -30366.431792876032, 27717.969839577083)
    CV[90] (60372.696290542532, -30334.693117735424, 27822.382114452779)
    CV[91] (60348.862464888836, -30270.946655470474, 28031.112120001082)
    CV[92] (60336.895153051919, -30238.938626062627, 28135.430635135988)
    CV[93] (60312.860729770153, -30174.655641070938, 28343.973010057573)
    CV[94] (60300.793530599265, -30142.380450853161, 28448.197649854857)
    CV[95] (60288.677543982871, -30109.974772685222, 28552.375518037516)
    CV[96] (60276.56447114826, -30077.576887780648, 28656.528332414498)
    CV[97] (60264.402664298941, -30045.0486578331, 28760.63526233962)
    CV[98] (60239.983614361947, -29979.736942123993, 28968.757004692241)
    CV[99] (60227.726284337834, -29946.953223840337, 29072.772540807709)
    CV[100] (60203.116620703178, -29881.131688639318, 29280.711143316115)
    CV[101] (60190.764203805353, -29848.093648959941, 29384.63492569032)
    CV[102] (60165.963378856359, -29781.76082959968, 29592.388261956403)
    CV[103] (60153.514888831523, -29748.465830670299, 29696.218546256805)
    CV[104] (60141.017164050398, -29715.039147403695, 29800.000000000007)
    CV[105] (60128.423731149953, -29681.356481144452, 29904.576216624639)
    CV[106] (60115.780075866067, -29647.539489019164, 30009.103485279356)
    CV[107] (60090.390473387168, -29579.631912625002, 30218.055788780901)
    CV[108] (60077.644423563215, -29545.541053862558, 30322.481623802589)
    CV[109] (60052.049773072511, -29477.085051649705, 30531.229850415846)
    CV[110] (60039.201072181138, -29442.719640136373, 30635.553057536184)
    CV[111] (60013.402699321996, -29373.718757699051, 30844.096708915724)
    CV[112] (60000.452933136628, -29339.083034778625, 30948.317955852763)
    CV[113] (59987.454362061297, -29304.316777250708, 31052.489023521353)
    CV[114] (59974.457752582159, -29269.555766250127, 31156.644370879698)
    CV[115] (59961.412426748313, -29234.664457440314, 31260.750483518827)
    CV[116] (59935.227308004913, -29164.629176150051, 31468.864971746039)
    CV[117] (59922.087421208795, -29129.484952558614, 31572.874060263941)
    CV[118] (59903.585081966776, -29079.9981984201, 31718.739255677108)
    CV[119] (59898.261956569928, -29065.760852843574, 31760.636558320017)
    CV[120] (59892.93110732401, -29051.502848894408, 31802.525846949047)
