  
  Rhino 物体: 曲线
  开发人员除错信息
  使用 Rhino 的"What"指令。
  名称: ""
  ID:5509D026-EE1F-4ea8-A005-0B7D8644115C
  图层索引: 5
  渲染材质索引: -1 (从图层)
  ON_NurbsCurve dim = 3 is_rat = 0
          order = 4 cv_count = 121
  Knot Vector ( 123 knots )
  index                     value  mult       delta
      0                        0     3
      3       1254.6585449364502     3        1255
      6        2509.081033432255     3        1254
      9       2926.4329030785689     3       417.4
     12       3343.5745174646026     3       417.1
     15       3760.6400664679795     3       417.1
     18       4177.8036884932262     3       417.2
     21       4594.8148530282024     3         417
     24       5012.0497735770386     3       417.2
     27       5643.2772645277546     3       631.2
     30       6274.8196134495784     3       631.5
     33       6906.1219571759539     3       631.3
     36       7537.3700500159603     3       631.2
     39       8176.2551051652836     3       638.9
     42       8814.8597218325285     3       638.6
     45       9453.3464054777214     3       638.5
     48       9772.6640762206644     2       319.3
     50        10091.98527499889     3       319.3
     53       10415.974123235595     2         324
     55       10739.966737355902     3         324
     58       11064.089587065322     2       324.1
     60       11388.216117679243     3       324.1
     63       11712.238773654935     2         324
     65       12036.265420676782     3         324
     68       12360.287349225668     2         324
     70       12684.310606794486     3         324
     73       13011.871870955196     2       327.6
     75       13339.433799663857     3       327.6
     78       13666.924537160563     2       327.5
     80       13994.416077203998     3       327.5
     83       14649.288036724651     3       654.9
     86       14976.745137995298     2       327.5
     88       15304.202754343876     3       327.5
     91       15634.259522308996     2       330.1
     93       15964.316818808396     2       330.1
     95        16294.37466362267     2       330.1
     97       16624.433060256215     3       330.1
    100       16954.424990520067     2         330
    102       17284.417438170902     2         330
    104       17614.410391037578     2         330
    106       17944.403844481414     3         330
    109       18277.185609721411     2       332.8
    111       18609.967932239379     2       332.8
    113       18942.750825993928     2       332.8
    115       19275.534297476574     3       332.8
    118       19608.286965546456     2       332.8
    120       19833.161290763292     3       224.9
  Control Points  121 non-rational points
    index               value
    CV[ 0] (63471.298687103867, -30918.272644942474, 12300.000000000016)
    CV[ 1] (63492.703472805377, -30969.3172650825, 12714.692626295635)
    CV[ 2] (63509.687118466158, -31009.818662921145, 13130.293814220629)
    CV[ 3] (63522.159938814591, -31039.562963361197, 13547.421714379061)
    CV[ 4] (63534.604066953834, -31069.238840648602, 13963.590062436415)
    CV[ 5] (63542.599873362815, -31088.306674662515, 14382.680029065012)
    CV[ 6] (63545.992608056404, -31096.397428575452, 14800)
    CV[ 7] (63547.123890746887, -31099.095231581367, 14939.152306958131)
    CV[ 8] (63547.743541931042, -31100.572931930943, 15078.128858784672)
    CV[ 9] (63547.856571539269, -31100.842476952188, 15217.311578775709)
    CV[10] (63547.969476712271, -31101.11172522909, 15356.341071356168)
    CV[11] (63547.576749301457, -31100.17517665615, 15495.419357505749)
    CV[12] (63546.675991476863, -31098.027113057862, 15634.429665296197)
    CV[13] (63545.775193926456, -31095.878954724263, 15773.446103810438)
    CV[14] (63544.366337766107, -31092.519214125143, 15912.391992532292)
    CV[15] (63542.448634923145, -31087.946011920474, 16051.339481041774)
    CV[16] (63540.530985560108, -31083.372937250959, 16190.283094653812)
    CV[17] (63538.104343277999, -31077.586052241521, 16329.24095634643)
    CV[18] (63535.171889499296, -31070.59294372367, 16468.066076235329)
    CV[19] (63532.239579256602, -31063.600177500346, 16606.88440099479)
    CV[20] (63528.801710450549, -31055.401790945889, 16745.56036483089)
    CV[21] (63524.854461059331, -31045.988669572835, 16884.210424314122)
    CV[22] (63520.906092370678, -31036.572878978357, 17022.899799949053)
    CV[23] (63516.449083610583, -31025.944119490076, 17161.527099450195)
    CV[24] (63511.493295893022, -31014.12590719563, 17299.999999999993)
    CV[25] (63503.994703976037, -30996.24379516119, 17509.523053036461)
    CV[26] (63495.353052184284, -30975.635794724109, 17718.724029683799)
    CV[27] (63485.604187522134, -30952.387391286888, 17927.626387941353)
    CV[28] (63475.852651838548, -30929.132618186522, 18136.585981856257)
    CV[29] (63464.990844701097, -30903.230148192331, 18345.299238247258)
    CV[30] (63453.398546301571, -30875.585654264421, 18553.62557074731)
    CV[31] (63441.808741755944, -30847.947107503041, 18761.907085954081)
    CV[32] (63429.480563011377, -30818.547738137215, 18969.939522039145)
    CV[33] (63416.501575905757, -30787.596366988379, 19177.660261525001)
    CV[34] (63403.52287407664, -30756.645676146793, 19385.376435335085)
    CV[35] (63389.890582864711, -30724.136351538051, 19592.840396955806)
    CV[36] (63375.664947703641, -30690.212062214465, 19799.999999999996)
    CV[37] (63361.266519663681, -30655.875708645584, 20009.675884657921)
    CV[38] (63346.255848302186, -30620.079320474302, 20219.091075725803)
    CV[39] (63330.623524252893, -30582.800458908976, 20428.165835258274)
    CV[40] (63314.997392936435, -30545.536365335247, 20637.157769989732)
    CV[41] (63298.747049263948, -30506.78369425159, 20845.858411214456)
    CV[42] (63281.881487766237, -30466.563895179359, 21054.195450278119)
    CV[43] (63265.018292412802, -30426.349738720764, 21262.503260816407)
    CV[44] (63247.535181623804, -30384.657251744487, 21470.496345280964)
    CV[45] (63229.437118563554, -30341.498270053977, 21678.100397966566)
    CV[46] (63220.385346251787, -30319.912243186373, 21781.933863992952)
    CV[47] (63211.179208707574, -30297.958097022321, 21885.679958101813)
    CV[48] (63192.459656991567, -30253.317033109794, 22092.980155799753)
    CV[49] (63182.945687333522, -30230.628790676965, 22196.540396747791)
    CV[50] (63173.276849442977, -30207.571229428704, 22300.000000000007)
    CV[51] (63163.4664598526, -30184.176105690967, 22404.974250914154)
    CV[52] (63153.495759353602, -30160.398683828455, 22509.851104427948)
    CV[53] (63133.237793630055, -30112.088918919435, 22719.39326670895)
    CV[54] (63122.949907750211, -30087.555095778029, 22824.064987648231)
    CV[55] (63112.506975090611, -30062.651528034312, 22928.629145179319)
    CV[56] (63102.059610113793, -30037.737390413749, 23033.237683109201)
    CV[57] (63091.456636777213, -30012.452168974618, 23137.745128252889)
    CV[58] (63069.924388638843, -29961.103585423683, 23346.528190418838)
    CV[59] (63058.994424347489, -29935.038579065917, 23450.810525797013)
    CV[60] (63047.892428685031, -29908.563324452822, 23554.965739930038)
    CV[61] (63036.793700431961, -29882.095861726706, 23659.090300319825)
    CV[62] (63025.522138446933, -29855.216237331759, 23763.094325321388)
    CV[63] (63002.707618377906, -29800.809782306223, 23970.895839770903)
    CV[64] (62991.164111837272, -29773.281643754981, 24074.698803215473)
    CV[65] (62979.522060110045, -29745.518501607534, 24178.425199373236)
    CV[66] (62967.8799669418, -29717.755260634473, 24282.15196475522)
    CV[67] (62956.139184800348, -29689.756673173029, 24385.80556253728)
    CV[68] (62932.497561843382, -29633.377801636514, 24592.988185469218)
    CV[69] (62920.596441977286, -29604.996852101369, 24696.51903206456)
    CV[70] (62908.632037487776, -29576.464985868974, 24800)
    CV[71] (62896.536920341976, -29547.62140533208, 24904.611510805869)
    CV[72] (62884.376775719189, -29518.622751863903, 25009.173272615859)
    CV[73] (62859.914378816298, -29460.286556630024, 25218.184337823564)
    CV[74] (62847.611956836787, -29430.94861017718, 25322.634858403606)
    CV[75] (62835.233931748066, -29401.430370772752, 25427.024561943457)
    CV[76] (62822.858537633263, -29371.918405528992, 25531.392077243585)
    CV[77] (62810.407620962949, -29342.226339432451, 25635.700275089876)
    CV[78] (62785.374626603487, -29282.529423711585, 25844.209889745638)
    CV[79] (62772.792393249489, -29252.524202868717, 25948.412487413985)
    CV[80] (62760.153775026367, -29222.384519375017, 26052.568667912688)
    CV[81] (62734.880814989832, -29162.11535046724, 26260.845786568498)
    CV[82] (62709.381008965742, -29101.30521528087, 26468.941900702728)
    CV[83] (62683.646701299389, -29039.935857151628, 26676.839510941121)
    CV[84] (62670.778592663439, -29009.24890114084, 26780.796029546033)
    CV[85] (62657.851942685804, -28978.42233987591, 26884.704479070853)
    CV[86] (62631.883838128881, -28916.495439445818, 27092.424442816118)
    CV[87] (62618.84227590535, -28885.394843578346, 27196.236821971663)
    CV[88] (62605.74309282114, -28854.156837554714, 27300.000000000022)
    CV[89] (62592.539874296577, -28822.670735165724, 27404.587278878716)
    CV[90] (62579.277834435845, -28791.044359811505, 27509.125308555689)
    CV[91] (62552.6339810262, -28727.505981276561, 27718.098261536325)
    CV[92] (62539.252047680238, -28695.593692412287, 27822.534088024953)
    CV[93] (62512.367622795842, -28631.481616026937, 28031.300900445629)
    CV[94] (62498.865011028422, -28599.281541792265, 28135.632809982581)
    CV[95] (62471.740072808629, -28534.595906203151, 28344.191479793677)
    CV[96] (62458.117628979759, -28502.110064937529, 28448.419159957681)
    CV[97] (62444.436562031158, -28469.484423399233, 28552.594756103172)
    CV[98] (62430.758161465601, -28436.86514046276, 28656.750048858303)
    CV[99] (62417.021180254356, -28404.106158542734, 28760.854288481903)
    CV[100] (62389.432589303578, -28338.314836689799, 28968.960179104091)
    CV[101] (62375.580863517498, -28305.282220017329, 29072.962686699459)
    CV[102] (62347.763422654876, -28238.945153068791, 29280.864770932974)
    CV[103] (62333.797595886703, -28205.640436438414, 29384.765193081279)
    CV[104] (62305.750939313155, -28138.756752062483, 29592.461247567131)
    CV[105] (62291.669999079553, -28105.177520975456, 29696.257739634213)
    CV[106] (62277.530188768083, -28071.457900687463, 29800.000000000022)
    CV[107] (62263.270812476505, -28037.453147900524, 29904.619503042089)
    CV[108] (62248.951282791764, -28003.304945552973, 30009.184612960962)
    CV[109] (62220.189638416334, -27934.716208799447, 30218.200983639283)
    CV[110] (62205.747387592412, -27900.275349752596, 30322.653186993972)
    CV[111] (62176.73984230926, -27831.100205893585, 30531.442190459875)
    CV[112] (62162.174413581452, -27796.365600887231, 30635.779952862045)
    CV[113] (62132.922196326464, -27726.606980602191, 30844.340564433274)
    CV[114] (62118.235280072156, -27691.582660728855, 30948.564363242724)
    CV[115] (62103.489569551442, -27656.418132444349, 31052.731882070679)
    CV[116] (62088.745126120106, -27621.256625825026, 31156.890449851075)
    CV[117] (62073.941968895495, -27585.955102701162, 31260.993834979778)
    CV[118] (62049.039592763191, -27526.569676096889, 31435.358370648231)
    CV[119] (62038.97119367202, -27502.559269536694, 31505.649715091826)
    CV[120] (62028.87691992188, -27478.487158918528, 31575.916087992817)
