  
  Rhino 物体: 曲线
  开发人员除错信息
  使用 Rhino 的"What"指令。
  名称: ""
  ID:2F1A1654-AE85-43fc-891F-F4F206FAE1BB
  图层索引: 5
  渲染材质索引: -1 (从图层)
  ON_NurbsCurve dim = 3 is_rat = 0
          order = 4 cv_count = 115
  Knot Vector ( 117 knots )
  index                     value  mult       delta
      0                        0     3
      3       1254.7209331801264     3        1255
      6       2509.9262994251144     3        1255
      9       2927.2738162439637     3       417.3
     12       3344.4743675144555     3       417.2
     15       3761.7300773077668     3       417.3
     18       4179.1824043663019     3       417.5
     21       4596.5315164820886     3       417.3
     24       5014.0961112102104     3       417.6
     27       5647.1547017174826     3       633.1
     30       6280.4542566624787     3       633.3
     33       6913.2859530285268     3       632.8
     36       7546.1043311197109     3       632.8
     39       8186.9903392690358     3       640.9
     42       8827.5787253786057     3       640.6
     45       9468.0990858455934     3       640.5
     48       9788.4443660429824     2       320.3
     50        10108.79304631714     3       320.3
     53       10433.885931285866     2       325.1
     55        10758.98237509769     3       325.1
     58       11409.416386974312     3       650.4
     61       11734.610006555309     2       325.2
     63        12059.80732470564     3       325.2
     66       12385.003798721747     2       325.2
     68       12710.201334746571     3       325.2
     71       13038.735576149918     2       328.5
     73       13367.270244718826     3       328.5
     76        14024.22449178289     3         657
     79       14681.174255041688     3       656.9
     82       15009.705412922833     2       328.5
     84        15338.23723371175     3       328.5
     87       15669.617757827016     2       331.4
     89       16000.998924652667     2       331.4
     91       16332.380798564822     2       331.4
     93       16663.763378028278     3       331.4
     96       16995.209897667941     2       331.4
     98       17326.657107340467     2       331.4
    100       17658.104950521923     2       331.4
    102       17989.553427608851     3       331.4
    105       18324.159658926124     2       334.6
    107       18658.766568046729     2       334.6
    109       18993.374222436236     2       334.6
    111       19327.982622997522     3       334.6
    114       19419.462655133051     3       91.48
  Control Points  115 non-rational points
    index               value
    CV[ 0] (67302.724993320735, -27869.162665223514, 12300.000000000015)
    CV[ 1] (67329.141499035148, -27921.572052098138, 12714.27646270478)
    CV[ 2] (67349.945499585854, -27962.846432789815, 13129.602070131748)
    CV[ 3] (67364.949445555831, -27992.613716074244, 13546.690243106776)
    CV[ 4] (67379.922082868739, -28022.318884121385, 13962.908080331563)
    CV[ 5] (67389.177461753963, -28040.681219318529, 14382.517410463168)
    CV[ 6] (67392.489813678738, -28047.252805105349, 14799.999999999998)
    CV[ 7] (67393.594010972971, -28049.44349239023, 14939.170944460531)
    CV[ 8] (67394.037945811899, -28050.324242969869, 15078.129889695807)
    CV[ 9] (67393.83061167688, -28049.912899584349, 15217.321633811647)
    CV[10] (67393.623490437341, -28049.50197857571, 15356.370452634104)
    CV[11] (67392.766726893446, -28047.802190855193, 15495.458803080537)
    CV[12] (67391.25901794841, -28044.810951126194, 15634.468045303871)
    CV[13] (67389.750795533953, -28041.818692692505, 15773.524628890571)
    CV[14] (67387.591166986822, -28037.534068175741, 15912.50365181815)
    CV[15] (67384.781348261487, -28031.959489985282, 16051.460430481664)
    CV[16] (67381.970864269475, -28026.38359192992, 16190.450109244037)
    CV[17] (67378.50962728147, -28019.516623590876, 16329.430141224844)
    CV[18] (67374.404629554643, -28011.372457352154, 16468.260737028901)
    CV[19] (67370.299815837236, -28003.228656181411, 16607.08510965373)
    CV[20] (67365.550525426705, -27993.806236683697, 16745.786227856701)
    CV[21] (67360.155168015321, -27983.102043746272, 16884.392465499841)
    CV[22] (67354.756157230993, -27972.39060264975, 17023.092557959422)
    CV[23] (67348.715063586584, -27960.405292503936, 17161.572786494384)
    CV[24] (67342.047234100231, -27947.176561234868, 17299.999999999993)
    CV[25] (67331.944706026057, -27927.133512847828, 17509.733139327127)
    CV[26] (67320.402490547101, -27904.234176994491, 17719.364479650241)
    CV[27] (67307.197508443132, -27878.035972612714, 17928.248128535466)
    CV[28] (67293.98214113756, -27851.817164368531, 18137.296056235289)
    CV[29] (67279.088729176292, -27822.269176538572, 18345.79679322942)
    CV[30] (67263.650089459843, -27791.639476665921, 18554.081093279667)
    CV[31] (67248.22240629165, -27761.031514186652, 18762.217577393632)
    CV[32] (67232.247686863586, -27729.338251657187, 18970.168964214947)
    CV[33] (67215.593764145684, -27696.297474495448, 19177.831789296481)
    CV[34] (67198.939769648045, -27663.256554925334, 19385.495509421355)
    CV[35] (67181.604184731565, -27628.863384745793, 19592.908048001667)
    CV[36] (67163.5854103038, -27593.114791415555, 19800)
    CV[37] (67145.336208982582, -27556.909039506681, 20009.740276130873)
    CV[38] (67126.381846838238, -27519.304274163296, 20219.197469765917)
    CV[39] (67106.723747725715, -27480.303320261773, 20428.299203561055)
    CV[40] (67087.07395865662, -27441.318853184301, 20637.312544044005)
    CV[41] (67066.716804484618, -27400.93099946134, 20846.017577949624)
    CV[42] (67045.658618914124, -27359.152324932165, 21054.343587546431)
    CV[43] (67024.601784104088, -27317.376330262632, 21262.656234238137)
    CV[44] (67002.838470749339, -27274.198707846801, 21470.636529433963)
    CV[45] (66980.373398678901, -27229.62882165394, 21678.212432706314)
    CV[46] (66969.137122383632, -27207.336458017551, 21782.034944118521)
    CV[47] (66957.724609723373, -27184.69444784068, 21885.765829976881)
    CV[48] (66934.550043330484, -27138.716950708171, 22093.028453096602)
    CV[49] (66922.787330636231, -27115.38015639667, 22196.56606166036)
    CV[50] (66910.849148293433, -27091.695236682201, 22300)
    CV[51] (66898.733908572249, -27067.659041566531, 22404.967986106185)
    CV[52] (66886.436958650535, -27043.262340019668, 22509.8350703379)
    CV[53] (66861.489312696576, -26993.767117504398, 22719.354793760031)
    CV[54] (66848.837911865034, -26968.667198239797, 22824.013387014387)
    CV[55] (66836.015686894942, -26943.228370095185, 22928.56486688061)
    CV[56] (66810.361845470412, -26892.33208144247, 23137.744404086105)
    CV[57] (66784.021658080965, -26840.074107349825, 23346.530568167153)
    CV[58] (66756.910299373281, -26786.286157400376, 23554.790754288166)
    CV[59] (66743.354629409121, -26759.392201054456, 23658.920775220267)
    CV[60] (66729.604552469842, -26732.112548338195, 23762.928313604265)
    CV[61] (66701.806708814125, -26676.962637211382, 23970.740060746026)
    CV[62] (66687.758341982248, -26649.091188193597, 24074.549228968208)
    CV[63] (66673.606553158344, -26621.01455370387, 24178.2864697923)
    CV[64] (66659.454571672453, -26592.937536979767, 24282.025122891744)
    CV[65] (66645.199019502834, -26564.655039784859, 24385.694740648065)
    CV[66] (66616.527435581418, -26507.771659738715, 24592.922423226923)
    CV[67] (66602.111117272623, -26479.170208368829, 24696.481861191791)
    CV[68] (66587.635957819861, -26450.452018308719, 24800.000000000004)
    CV[69] (66573.012208786036, -26421.439031922266, 24904.580767301417)
    CV[70] (66558.328101243082, -26392.306296448143, 25009.120215451137)
    CV[71] (66528.826182714358, -26333.775562730785, 25218.105143906268)
    CV[72] (66514.008230218838, -26304.377283737296, 25322.551408588017)
    CV[73] (66499.118405686269, -26274.836413235404, 25426.946496945413)
    CV[74] (66469.34401089164, -26215.765096513296, 25635.699835077306)
    CV[75] (66439.282798901331, -26156.124744903183, 25844.254945773533)
    CV[76] (66408.918175373372, -26095.882435833919, 26052.586511644658)
    CV[77] (66378.553550496857, -26035.640124089186, 26260.918086768197)
    CV[78] (66347.882728904908, -25974.790329193871, 26469.033425363228)
    CV[79] (66316.90168906594, -25913.325072575524, 26676.914669867485)
    CV[80] (66301.408316074696, -25882.586783875704, 26780.87443608998)
    CV[81] (66285.837427059581, -25851.694706202845, 26884.777674063298)
    CV[82] (66254.546331370337, -25789.614310050692, 27092.471865104846)
    CV[83] (66238.825956198838, -25758.425657278713, 27196.263903031377)
    CV[84] (66223.032071426569, -25727.091164131485, 27300.000000000018)
    CV[85] (66207.101144394517, -25695.48478412348, 27404.6362066855)
    CV[86] (66191.095058758539, -25663.729292177904, 27509.216428263189)
    CV[87] (66158.928020701293, -25599.911058215534, 27718.258031147929)
    CV[88] (66142.766889747072, -25567.847961995845, 27822.720520707338)
    CV[89] (66110.286793007181, -25503.408630989416, 28031.52303403075)
    CV[90] (66093.967642497359, -25471.032029716655, 28135.864218985193)
    CV[91] (66061.170576411867, -25405.963843053065, 28344.422021493629)
    CV[92] (66044.692474623385, -25373.271888222745, 28448.639824981423)
    CV[93] (66028.135575748514, -25340.423602837949, 28552.795004195694)
    CV[94] (66011.575344181576, -25307.568705513258, 28656.971148515961)
    CV[95] (65994.936277444518, -25274.557402077407, 28761.085953936654)
    CV[96] (65961.505856420874, -25208.232662244314, 28969.193509235894)
    CV[97] (65944.714316138299, -25174.918856837834, 29073.187380200463)
    CV[98] (65910.981803895978, -25107.994779010452, 29281.054183607775)
    CV[99] (65894.040656123805, -25074.384157784061, 29384.928193066517)
    CV[100] (65860.009713380248, -25006.868004692693, 29592.554748855713)
    CV[101] (65842.919747893975, -24972.962134532379, 29696.30835925178)
    CV[102] (65825.754815279171, -24938.907532314719, 29800.000000000022)
    CV[103] (65808.426213070299, -24904.528215573187, 29904.68035239257)
    CV[104] (65791.020834489507, -24869.996577301219, 30009.298501209592)
    CV[105] (65756.05138000517, -24800.618451038976, 30218.402508455889)
    CV[106] (65738.487098919475, -24765.77155597473, 30322.889524402661)
    CV[107] (65703.196852253677, -24695.756989687969, 30531.72732559939)
    CV[108] (65685.470676462341, -24660.588901414001, 30636.079327125477)
    CV[109] (65649.856362922175, -24589.93139823106, 30844.645397885823)
    CV[110] (65631.96801695005, -24554.441570214593, 30948.860703771184)
    CV[111] (65613.999923389783, -24518.793525882815, 31053.00725535426)
    CV[112] (65609.087506534765, -24509.04746945027, 31081.480575223846)
    CV[113] (65604.16913322352, -24499.289595625101, 31109.948862575831)
    CV[114] (65599.24486178896, -24489.520020137767, 31138.41212658264)
