  
  Rhino 物体: 曲线
  开发人员除错信息
  使用 Rhino 的"What"指令。
  名称: ""
  ID:7113653F-53EC-4e3e-92D7-992FDF945435
  图层索引: 5
  渲染材质索引: -1 (从图层)
  ON_NurbsCurve dim = 3 is_rat = 0
          order = 4 cv_count = 94
  Knot Vector ( 96 knots )
  index                     value  mult       delta
      0                        0     3
      3       1261.1446385685549     3        1261
      6       2522.1322619668099     3        1261
      9       2940.4596596255506     3       418.3
     12       3358.4532003777367     3         418
     15       3776.5026112886917     3         418
     18       4194.6276589508061     3       418.1
     21       4612.8396510254788     3       418.2
     24       5030.9385279088901     3       418.1
     27       5671.4410094303266     3       640.5
     30       5992.0285929536976     2       320.6
     32        6312.535201783744     3       320.5
     35       6953.1175406880502     3       640.6
     38       7593.6233433988618     3       640.5
     41       8242.2159814300576     3       648.6
     44        8890.816538291263     3       648.6
     47        9539.477291143834     3       648.7
     50       9863.7481621907755     2       324.3
     52       10188.020572467409     3       324.3
     55       10516.416017516116     2       328.4
     57         10844.8130904717     3       328.4
     60       11501.083227803409     3       656.3
     63       12157.587036703701     3       656.5
     66       12485.840473979773     2       328.3
     68       12814.095252924053     3       328.3
     71       13146.547406875767     2       332.5
     73       13479.000782932328     3       332.5
     76       14143.913364806656     3       664.9
     79       14808.840505379441     3       664.9
     82       15141.295363433946     2       332.5
     84       15473.751460154983     3       332.5
     87       16821.875234605406     3        1348
     90       18170.324914697805     3        1348
     93       18452.638442870761     3       282.3
  Control Points  94 non-rational points
    index               value
    CV[ 0] (74423.376895773341, -20643.260980166455, 12300.000000000002)
    CV[ 1] (74473.471196420069, -20714.142776015255, 12711.458692511756)
    CV[ 2] (74513.337401069613, -20770.552150789521, 13125.84089412717)
    CV[ 3] (74542.32095345878, -20811.56292880018, 13543.362459544966)
    CV[ 4] (74571.21238264878, -20852.443355499167, 13959.556947390871)
    CV[ 5] (74589.434836165587, -20878.227530811881, 14380.965745207784)
    CV[ 6] (74596.30883724973, -20887.954017362659, 14800.000000000007)
    CV[ 7] (74598.596833968186, -20891.191457834055, 14939.474665212665)
    CV[ 8] (74599.628176008962, -20892.650773066332, 15078.728738354712)
    CV[ 9] (74599.420854729411, -20892.357420241307, 15218.259141688233)
    CV[10] (74599.213847760548, -20892.064512155623, 15357.578009096276)
    CV[11] (74597.772327337036, -20890.024807936752, 15496.910421962255)
    CV[12] (74595.087842194043, -20886.226349321529, 15636.152169818819)
    CV[13] (74592.402933478268, -20882.427291364686, 15775.415888001258)
    CV[14] (74588.474141671817, -20876.868179546345, 15914.616207974454)
    CV[15] (74583.309463612226, -20869.56032912985, 16053.66991048674)
    CV[16] (74578.142958514785, -20862.24989351461, 16192.772804134331)
    CV[17] (74571.741715988523, -20853.192344850049, 16331.67449285435)
    CV[18] (74564.106221584952, -20842.388370175657, 16470.435854519383)
    CV[19] (74556.474652915815, -20831.589950286998, 16609.125873030058)
    CV[20] (74547.600477590298, -20819.033282649551, 16747.850519375279)
    CV[21] (74537.525249493439, -20804.777164650666, 16886.071369515397)
    CV[22] (74527.42810268153, -20790.490032387381, 17024.592919887775)
    CV[23] (74516.163890309763, -20774.551540554487, 17162.069802809463)
    CV[24] (74503.659179891489, -20756.857784586777, 17300)
    CV[25] (74484.58741494728, -20729.871861401916, 17510.366510821703)
    CV[26] (74462.648990249611, -20698.829708490539, 17721.580276450666)
    CV[27] (74437.955493604371, -20663.889218945737, 17930.187162215974)
    CV[28] (74425.562321155361, -20646.353285553942, 18034.882789023384)
    CV[29] (74412.43802464183, -20627.782835540209, 18139.23653261485)
    CV[30] (74385.307494847992, -20589.394023853267, 18347.722243865162)
    CV[31] (74371.310142939648, -20569.588229030684, 18451.786131627388)
    CV[32] (74357.188962998509, -20549.607221594517, 18555.791154750223)
    CV[33] (74328.968154454284, -20509.675701160162, 18763.642471525582)
    CV[34] (74300.248084693885, -20469.037742445558, 18971.298014970398)
    CV[35] (74270.916050887667, -20427.533874635425, 19178.683527350215)
    CV[36] (74241.587127851817, -20386.034408463551, 19386.047045731433)
    CV[37] (74211.644091049267, -20343.665991411486, 19593.158709169566)
    CV[38] (74181.120918846107, -20300.476701755179, 19800)
    CV[39] (74150.211778486264, -20256.741279789738, 20009.456816871436)
    CV[40] (74118.704068146282, -20212.158900893359, 20218.657453643413)
    CV[41] (74086.593058984959, -20166.722873910505, 20427.566611895414)
    CV[42] (74054.481068122142, -20121.285457852173, 20636.482156942435)
    CV[43] (74021.763045034648, -20074.990526031095, 20845.127178481434)
    CV[44] (73988.444750246315, -20027.846229399998, 21053.470618474305)
    CV[45] (73955.122737752652, -19980.696672337526, 21261.83730574093)
    CV[46] (73921.196188237271, -19932.691715175592, 21469.922987998401)
    CV[47] (73886.666230830655, -19883.832955596852, 21677.694119548687)
    CV[48] (73869.403901358091, -19859.407324382275, 21781.563744566578)
    CV[49] (73851.990374597648, -19834.767753953973, 21885.359087458579)
    CV[50] (73816.863448343225, -19785.064302994138, 22092.79447157395)
    CV[51] (73799.149604509395, -19759.999793736271, 22196.437141977527)
    CV[52] (73781.284913759606, -19734.721841029459, 22299.999999999993)
    CV[53] (73763.192907175136, -19709.122243856535, 22404.880623767374)
    CV[54] (73744.945415505339, -19683.302640376845, 22509.681957635814)
    CV[55] (73708.138509841723, -19631.222073538058, 22719.117028489567)
    CV[56] (73689.578604096911, -19604.960414367422, 22823.75353888654)
    CV[57] (73670.863664069591, -19578.479386761221, 22928.304921306531)
    CV[58] (73633.463715957434, -19525.559684267788, 23137.240470758028)
    CV[59] (73595.442838513613, -19471.761387092803, 23345.852467106757)
    CV[60] (73556.78841267059, -19417.066639668741, 23554.096780507203)
    CV[61] (73518.119420200033, -19362.351280943483, 23762.419569199439)
    CV[62] (73478.810918833697, -19306.731038061534, 23970.395380287515)
    CV[63] (73438.936145915271, -19250.30953946726, 24178.030189620549)
    CV[64] (73418.998051619739, -19222.097788604893, 24281.851280112674)
    CV[65] (73398.918029686829, -19193.685214780857, 24385.591538335088)
    CV[66] (73358.489690497052, -19136.480438030601, 24592.91247517199)
    CV[67] (73338.140936181633, -19107.687616680854, 24696.495303050557)
    CV[68] (73317.662927922211, -19078.711905230753, 24799.999999999993)
    CV[69] (73296.922910714275, -19049.36545969396, 24904.82900332093)
    CV[70] (73276.049481806374, -19019.830240968218, 25009.579707088396)
    CV[71] (73234.031847358172, -18960.376663444298, 25218.915648326234)
    CV[72] (73212.887216491057, -18930.457702822601, 25323.502955260719)
    CV[73] (73191.607558001619, -18900.347682534717, 25428.006312168058)
    CV[74] (73149.047919477845, -18840.127186983435, 25637.014605073949)
    CV[75] (73105.947749681451, -18779.14185737275, 25845.700050570333)
    CV[76] (73062.315115291727, -18717.403107789884, 26054.039564270439)
    CV[77] (73018.68087666716, -18655.662088267221, 26262.386737959685)
    CV[78] (72974.508715208882, -18593.159925540822, 26470.403365928039)
    CV[79] (72929.801164792632, -18529.900204961981, 26678.06273630276)
    CV[80] (72907.447444308156, -18498.270422104732, 26781.892167307582)
    CV[81] (72884.959527366213, -18466.450755652408, 26885.635811296572)
    CV[82] (72839.719835056938, -18402.438071711713, 27092.947884705431)
    CV[83] (72816.967612239212, -18370.244421095726, 27196.518358716155)
    CV[84] (72794.083655647162, -18337.864371500676, 27299.999999999993)
    CV[85] (72701.035792587383, -18206.204690690236, 27720.764020795479)
    CV[86] (72606.562297564771, -18072.527787312756, 28136.645686717879)
    CV[87] (72509.106242242124, -17934.630658728711, 28554.403190564743)
    CV[88] (72412.205739970828, -17797.519619529303, 28969.779247150895)
    CV[89] (72312.200197630256, -17656.015050258586, 29387.679793816584)
    CV[90] (72211.045910140601, -17512.885044199895, 29799.999999999993)
    CV[91] (72189.714720528369, -17482.702109059857, 29886.949161694705)
    CV[92] (72168.341112994822, -17452.45915394948, 29973.614832679545)
    CV[93] (72146.903130083199, -17422.125109786051, 30060.084104575384)
