  
  Rhino 物体: 曲线
  开发人员除错信息
  使用 Rhino 的"What"指令。
  名称: ""
  ID:DFEB8795-F929-4ca6-8F94-E056B3B4C6E0
  图层索引: 5
  渲染材质索引: -1 (从图层)
  ON_NurbsCurve dim = 3 is_rat = 0
          order = 4 cv_count = 85
  Knot Vector ( 87 knots )
  index                     value  mult       delta
      0                        0     3
      3       1262.7464721989536     3        1263
      6       2521.9221872630596     3        1259
      9       2942.2836864662027     3       420.4
     12       3362.1556327777807     3       419.9
     15        3781.842782165847     3       419.7
     18       4201.3175972681611     3       419.5
     21        4620.785790575982     3       419.5
     24       5039.8560097722475     3       419.1
     27       5686.4017423228252     3       646.5
     30        6333.627345613223     3       647.2
     33       6980.6193188865418     3         647
     36       7627.5011315133879     3       646.9
     39       8282.2934436907817     3       654.8
     42       8937.1643223070278     3       654.9
     45       9592.1191014492069     3         655
     48       9919.5347028796677     2       327.4
     50       10246.951509806393     3       327.4
     53       10579.093455525595     2       332.1
     55       10911.236869437711     3       332.1
     58       11575.044338037838     3       663.8
     61       12238.898301090847     3       663.9
     64       12902.775194259486     3       663.9
     67       13241.031713679522     2       338.3
     69       13579.290711984455     3       338.3
     72       14255.926456348994     3       676.6
     75       14932.384503206413     3       676.5
     78       15608.795751024985     3       676.4
     81       16991.757686707046     3        1383
     84       17917.755781523385     3         926
  Control Points  85 non-rational points
    index               value
    CV[ 0] (77772.611709889752, -16692.006355826867, 12299.999999999996)
    CV[ 1] (77830.296592674567, -16761.364888500611, 12710.884962495798)
    CV[ 2] (77874.998418121846, -16815.112991490176, 13126.42764513449)
    CV[ 3] (77905.666714416293, -16851.987609724576, 13544.377592929941)
    CV[ 4] (77936.246914378906, -16888.756303633301, 13961.126957003922)
    CV[ 5] (77952.891413221267, -16908.769138210835, 14380.509137901194)
    CV[ 6] (77954.860462188415, -16911.136662257526, 14799.999999999995)
    CV[ 7] (77955.518103395021, -16911.92738986091, 14940.105442431606)
    CV[ 8] (77954.538775188674, -16910.749875681828, 15080.240254200893)
    CV[ 9] (77951.935485192313, -16907.619759686873, 15220.290193615689)
    CV[10] (77949.334831478016, -16904.492813476561, 15360.198308207666)
    CV[11] (77945.114278057343, -16899.418149575085, 15499.980009414561)
    CV[12] (77939.266519414712, -16892.386984054727, 15639.648210725103)
    CV[13] (77933.422795274426, -16885.360669496153, 15779.220051751805)
    CV[14] (77925.954149348676, -16876.380598852644, 15918.677600564126)
    CV[15] (77916.880882765923, -16865.471181578021, 16057.826626393447)
    CV[16] (77907.808077121663, -16854.562318521697, 16196.968583198608)
    CV[17] (77897.136404453151, -16841.731026825699, 16335.716285900295)
    CV[18] (77884.855089999532, -16826.964351248229, 16474.254760015112)
    CV[19] (77872.589739747957, -16812.216870537351, 16612.613151110265)
    CV[20] (77858.695847547249, -16795.511280967825, 16751.023043469795)
    CV[21] (77843.28081703413, -16776.97672137621, 16888.608537630887)
    CV[22] (77827.819442655804, -16758.386439343391, 17026.607669870125)
    CV[23] (77810.921656642968, -16738.069060045629, 17162.938119289582)
    CV[24] (77792.363947006699, -16715.755839527214, 17300)
    CV[25] (77763.97065328958, -16681.616614570481, 17509.704662520689)
    CV[26] (77731.624516512398, -16642.724612433663, 17721.605089077944)
    CV[27] (77698.010076494567, -16602.30764140535, 17929.395479282215)
    CV[28] (77664.132499465151, -16561.574282510155, 18138.812472288286)
    CV[29] (77628.539309797023, -16518.77812363144, 18346.691208215903)
    CV[30] (77592.164470375748, -16475.042133078885, 18555.074995436895)
    CV[31] (77555.848056290575, -16431.376391357342, 18763.124076223368)
    CV[32] (77518.88783517605, -16386.936555822576, 18970.906363293896)
    CV[33] (77481.31957502439, -16341.765632810657, 19178.407327416819)
    CV[34] (77443.757057493669, -16296.601614549911, 19385.876573292026)
    CV[35] (77405.583220839166, -16250.702564936531, 19593.082824126621)
    CV[36] (77366.803324715016, -16204.074808017198, 19800)
    CV[37] (77327.548572504413, -16156.876098713159, 20009.450856727988)
    CV[38] (77287.668786054492, -16108.925867422471, 20218.622745508408)
    CV[39] (77247.206060650758, -16060.2747282245, 20427.507105241424)
    CV[40] (77206.737829506092, -16011.616969092602, 20636.419887755092)
    CV[41] (77165.683893367226, -15962.254976251352, 20845.062398920385)
    CV[42] (77124.040019637629, -15912.183660556566, 21053.40603732353)
    CV[43] (77082.390211295962, -15862.10520926637, 21261.779366496572)
    CV[44] (77040.146477748232, -15811.312640536349, 21469.869667052855)
    CV[45] (76997.317033950865, -15759.815831778009, 21677.65395835185)
    CV[46] (76975.905852717216, -15734.071684585811, 21781.528926692725)
    CV[47] (76954.347821500065, -15708.150969480366, 21885.330787634932)
    CV[48] (76910.935074624533, -15655.952815002796, 22092.780406288235)
    CV[49] (76889.079927885177, -15629.674857312153, 22196.430242035913)
    CV[50] (76867.073354920227, -15603.214829375198, 22300)
    CV[51] (76844.749036784444, -15576.372754396642, 22405.065165290314)
    CV[52] (76822.268199592756, -15549.342485708903, 22510.05021954963)
    CV[53] (76776.939008256333, -15494.840057228481, 22719.823314194611)
    CV[54] (76754.089972138332, -15467.367077452051, 22824.614301775466)
    CV[55] (76731.030861312596, -15439.641510294354, 22929.289843573901)
    CV[56] (76684.946162389271, -15384.230682678455, 23138.48875262434)
    CV[57] (76638.018581675045, -15327.806399865767, 23347.247707572642)
    CV[58] (76590.304360370079, -15270.436284549301, 23555.544611262558)
    CV[59] (76542.585401720251, -15213.060473194766, 23763.862195878159)
    CV[60] (76494.071738941129, -15154.729133985142, 23971.748213866496)
    CV[61] (76444.765139279203, -15095.44439180339, 24179.153270979812)
    CV[62] (76395.455539607618, -15036.156042502103, 24386.570947441825)
    CV[63] (76345.347908755124, -14975.908165001019, 24593.538765237943)
    CV[64] (76294.434325706097, -14914.691235313989, 24800)
    CV[65] (76268.491864219803, -14883.498815813962, 24905.200072563541)
    CV[66] (76242.338068812358, -14852.052294893108, 25010.274592292848)
    CV[67] (76189.616082256573, -14788.660996330644, 25220.164326424612)
    CV[68] (76163.046878236666, -14756.715000843324, 25324.983574823425)
    CV[69] (76136.275120740218, -14724.52546127232, 25429.673408284172)
    CV[70] (76082.722377078331, -14660.135285861961, 25639.08916352813)
    CV[71] (76028.354614781885, -14594.765157058835, 25848.009641482466)
    CV[72] (75973.18658852973, -14528.432815436012, 26056.39069502553)
    CV[73] (75918.031521571975, -14462.116055671046, 26264.722798631399)
    CV[74] (75862.067638058114, -14394.826799702123, 26472.545472864127)
    CV[75] (75805.319443277869, -14326.594511937528, 26679.821867391314)
    CV[76] (75748.573662764873, -14258.365127013783, 26887.089443653662)
    CV[77] (75691.035414746031, -14189.182903482355, 27093.841397814333)
    CV[78] (75632.671146998662, -14119.007499180423, 27300.000000000007)
    CV[79] (75513.333734069311, -13975.519856417337, 27721.532475049033)
    CV[80] (75390.540683052546, -13827.877260473713, 28140.595078758444)
    CV[81] (75264.526317524767, -13676.361454826307, 28557.346277377823)
    CV[82] (75180.210350861948, -13574.982524223027, 28836.193693085675)
    CV[83] (75094.346885098275, -13471.742928194635, 29114.354714147645)
    CV[84] (75007.037500023667, -13366.76480316302, 29391.244529601641)
