  
  Rhino 物体: 曲线
  开发人员除错信息
  使用 Rhino 的"What"指令。
  名称: ""
  ID:DA32A2C8-26C1-4e74-8F93-0B83FFED1031
  图层索引: 5
  渲染材质索引: -1 (从图层)
  ON_NurbsCurve dim = 3 is_rat = 0
          order = 4 cv_count = 89
  Knot Vector ( 91 knots )
  index                     value  mult       delta
      0                        0     3
      3       1261.2884840190545     3        1261
      6       2518.4986652458356     3        1257
      9        2939.897994189062     3       421.4
     12       3360.8902388403162     3         421
     15       3781.7149382102857     3       420.8
     18       4202.3268901704278     3       420.6
     21       4622.9836947565755     3       420.7
     24       5043.2430936577721     3       420.3
     27       5367.8050561089967     2       324.6
     29       5530.4232472824533     2       162.6
     31       5693.0432652828349     3       162.6
     34       6018.1881869599629     2       325.1
     36       6343.3367358787982     3       325.1
     39       6993.5277118606482     3       650.2
     42       7643.6067712554132     3       650.1
     45       8301.5824923575674     3         658
     48       8959.6178594169323     3         658
     51       9617.7273106886005     3       658.1
     54       10275.731575082975     3         658
     57       10609.916940718309     2       334.2
     59       10944.103838230492     3       334.2
     62       11612.132861611331     3         668
     65       12280.144910749734     3         668
     68        12948.24601882597     3       668.1
     71       13631.212312373038     3         683
     74       14314.416816585212     3       683.2
     77       14997.435597340969     3         683
     80       15338.962162349166     2       341.5
     82       15680.491638378917     3       341.5
     85       17082.863609131873     3        1402
     88       17680.139977433773     3       597.3
  Control Points  89 non-rational points
    index               value
    CV[ 0] (79180.349589016289, -14918.823242851879, 12299.999999999996)
    CV[ 1] (79237.404202148304, -14982.747536060246, 12711.180230620117)
    CV[ 2] (79280.502987565284, -15031.035645376591, 13127.418805112991)
    CV[ 3] (79308.449146696541, -15062.346671291729, 13545.351784731352)
    CV[ 4] (79336.347742344486, -15093.604406826187, 13962.573455571617)
    CV[ 5] (79349.091667941437, -15107.882769113889, 14380.686414712338)
    CV[ 6] (79345.99389741561, -15104.412010475549, 14799.999999999993)
    CV[ 7] (79344.956692114443, -15103.249920117736, 14940.395897594968)
    CV[ 8] (79342.143550119901, -15100.098060805723, 15080.92273030471)
    CV[ 9] (79337.570229927835, -15094.974088442315, 15221.159118140498)
    CV[10] (79332.998638652003, -15089.852053165889, 15361.342490451689)
    CV[11] (79326.665800990086, -15082.756708033932, 15501.309224760615)
    CV[12] (79318.568900862418, -15073.684897895775, 15641.132876827211)
    CV[13] (79310.478189173038, -15064.620021316921, 15780.8496620649)
    CV[14] (79300.627225813892, -15053.582949367999, 15920.404316172264)
    CV[15] (79289.045676165115, -15040.606919299364, 16059.565614652183)
    CV[16] (79277.463639707901, -15027.630343807952, 16198.732762513077)
    CV[17] (79264.158652774, -15012.723365402391, 16337.412999938968)
    CV[18] (79249.118746334803, -14995.872573919125, 16475.832135089007)
    CV[19] (79234.099074297526, -14979.044453167826, 16614.065043787017)
    CV[20] (79217.31823697465, -14960.243113426401, 16752.321837910615)
    CV[21] (79198.916235659737, -14939.625412891755, 16889.629282214708)
    CV[22] (79180.450715006737, -14918.936544951555, 17027.410679206136)
    CV[23] (79160.476580589457, -14896.557418094291, 17163.311184271242)
    CV[24] (79138.709067840158, -14872.16898057771, 17300)
    CV[25] (79121.970277358472, -14853.414750341686, 17405.111019068954)
    CV[26] (79104.194150533789, -14833.498282927872, 17510.540571359532)
    CV[27] (79076.815158874364, -14802.822714476702, 17667.465398566928)
    CV[28] (79067.530881152241, -14792.420560141465, 17719.790079515104)
    CV[29] (79048.74975018957, -14771.378080725033, 17824.350010863353)
    CV[30] (79039.252382335879, -14760.737179068537, 17876.587603648291)
    CV[31] (79029.685225679597, -14750.018085664971, 17928.795335118506)
    CV[32] (79010.536014433193, -14728.563207133197, 18033.292095706507)
    CV[33] (78991.105423291257, -14706.793069063986, 18137.675026493031)
    CV[34] (78951.782704372643, -14662.735684815525, 18346.23800349978)
    CV[35] (78931.889719766579, -14640.447478640081, 18450.423207788222)
    CV[36] (78911.818819852982, -14617.959935204031, 18554.528450111451)
    CV[37] (78871.683305893079, -14572.991891051213, 18762.706330751997)
    CV[38] (78830.834589292572, -14527.224770851566, 18970.582437509514)
    CV[39] (78789.376104422758, -14480.77446302701, 19178.170798543797)
    CV[40] (78747.92395989121, -14434.331258951304, 19385.727412628461)
    CV[41] (78705.858021525244, -14387.200356986026, 19593.01501125301)
    CV[42] (78663.164693382758, -14339.366524165056, 19800.000000000007)
    CV[43] (78619.952109773702, -14290.950914746669, 20009.502433312275)
    CV[44] (78576.092551301714, -14241.8104312372, 20218.711308198239)
    CV[45] (78531.637534428533, -14192.002792955442, 20427.623166206198)
    CV[46] (78487.177785114662, -14142.189852421867, 20636.557263840805)
    CV[47] (78442.119577504927, -14091.706396017998, 20845.211214137802)
    CV[48] (78396.453962029933, -14040.542396598528, 21053.554673301558)
    CV[49] (78350.782571810618, -13989.371927124686, 21261.92447898872)
    CV[50] (78304.499748613205, -13937.516404877297, 21469.999236564232)
    CV[51] (78257.615100166644, -13884.986594407193, 21677.757101345538)
    CV[52] (78210.737280631773, -13832.464435086213, 21885.484705473136)
    CV[53] (78163.255591599038, -13779.26569715533, 22092.912486797213)
    CV[54] (78115.145006337872, -13725.362340531985, 22300)
    CV[55] (78090.710185440665, -13697.985436723809, 22405.177400517816)
    CV[56] (78066.111941841285, -13670.425433247512, 22510.270510374816)
    CV[57] (78016.507005702733, -13614.84779792174, 22720.236158305444)
    CV[58] (77991.499484612126, -13586.829237758848, 22825.112000411173)
    CV[59] (77966.247610546707, -13558.536903218193, 22929.85230133708)
    CV[60] (77915.7702971174, -13501.981851717621, 23139.223256729219)
    CV[61] (77864.311046763047, -13444.326632842947, 23348.07793826301)
    CV[62] (77811.949987309345, -13385.661022237975, 23556.394615619964)
    CV[63] (77759.588355507745, -13326.994770371362, 23764.713570043292)
    CV[64] (77706.314983093966, -13267.306999454457, 23972.532585592115)
    CV[65] (77652.126036526519, -13206.593414366849, 24179.787106758704)
    CV[66] (77597.928142154909, -13145.869804111688, 24387.07585027106)
    CV[67] (77542.804731605749, -13084.1092405892, 24593.836588799706)
    CV[68] (77486.749281937809, -13021.304415461214, 24799.999999999996)
    CV[69] (77429.444714543104, -12957.100072162222, 25010.75747606048)
    CV[70] (77371.155608985035, -12891.792647047881, 25220.930181967618)
    CV[71] (77311.924086031591, -12825.429332451497, 25430.473859901998)
    CV[72] (77252.669741509613, -12759.040448447868, 25640.098273822397)
    CV[73] (77192.461203274579, -12691.582480712987, 25849.132971557854)
    CV[74] (77131.316165062206, -12623.075253402871, 26057.52059820624)
    CV[75] (77070.185610300105, -12554.584253427776, 26265.858863992071)
    CV[76] (77008.107883877383, -12485.032037266517, 26473.588694819256)
    CV[77] (76945.114835359476, -12414.45428934224, 26680.663344330838)
    CV[78] (76913.615026624437, -12379.161735435549, 26784.211466019817)
    CV[79] (76881.88384738208, -12343.609952777028, 26887.603196143948)
    CV[80] (76817.949749714375, -12271.977848360384, 27094.051460743471)
    CV[81] (76785.745328052581, -12235.895842368122, 27197.112808191065)
    CV[82] (76753.301067273307, -12199.545119347971, 27299.999999999996)
    CV[83] (76620.250137804949, -12050.47414751782, 27721.930910791838)
    CV[84] (76482.648026876588, -11896.304007677905, 28142.584382149969)
    CV[85] (76341.817522996862, -11738.516759136553, 28558.779883833522)
    CV[86] (76281.725358536947, -11671.189177200746, 28736.369879222602)
    CV[87] (76220.993375136299, -11603.14473870728, 28913.301985861071)
    CV[88] (76159.572234069492, -11534.328164284758, 29089.667368899802)
