  
  Rhino 物体: 曲线
  开发人员除错信息
  使用 Rhino 的"What"指令。
  名称: ""
  ID:82C08D08-DC96-49d2-B5B0-C8E647EB2DDE
  图层索引: 5
  渲染材质索引: -1 (从图层)
  ON_NurbsCurve dim = 3 is_rat = 0
          order = 4 cv_count = 86
  Knot Vector ( 88 knots )
  index                     value  mult       delta
      0                        0     3
      3       1251.6899148838365     3        1252
      6       2505.6185028694235     3        1254
      9       2929.6533313663049     3         424
     12       3353.9041388749788     3       424.3
     15       3778.4044188771159     3       424.5
     18       4203.0182806989424     3       424.6
     21       4627.9565897858338     3       424.9
     24       5052.7217239213496     3       424.8
     27       5216.9411666898586     2       164.2
     29        5381.164280089547     2       164.2
     31       5709.6104792990209     3       328.4
     34       6366.3594517606471     3       656.7
     37       7023.1739744579982     3       656.8
     40       7679.9094028664967     3       656.7
     43       8344.8640287962062     3         665
     46       9009.7950155435374     3       664.9
     49       9674.7769634492906     3         665
     52       10339.656711349349     3       664.9
     55        11017.09444647752     3       677.4
     58       11694.419943824158     3       677.3
     61       12371.622598000988     3       677.2
     64       12710.290381672405     2       338.7
     66       13048.961775368107     3       338.7
     69       13396.984648352956     2         348
     71       13745.011328353368     3         348
     74       14441.401562471592     3       696.4
     77       15137.571086245543     3       696.2
     80         15485.7237470196     2       348.2
     82       15833.880257239394     3       348.2
     85       17185.204777777468     3        1351
  Control Points  86 non-rational points
    index               value
    CV[ 0] (82024.873006972193, -11123.637844729637, 12300)
    CV[ 1] (82060.018558620228, -11157.577509401779, 12713.73431565757)
    CV[ 2] (82081.133017739863, -11177.967505536446, 13131.161144603959)
    CV[ 3] (82087.35924752742, -11183.980105744789, 13547.69441637602)
    CV[ 4] (82093.620003661301, -11190.02604765817, 13966.537492393207)
    CV[ 5] (82084.79526178581, -11181.504093498179, 14382.414010119774)
    CV[ 6] (82060.606673058239, -11158.145444912219, 14799.999999999996)
    CV[ 7] (82052.453317119362, -11150.271840614034, 14940.757579903813)
    CV[ 8] (82042.555047930844, -11140.713193179578, 15081.695628547946)
    CV[ 9] (82030.938416330799, -11129.495142455155, 15221.982647032961)
    CV[10] (82019.302330843275, -11118.258305329999, 15362.504598325067)
    CV[11] (82005.92119386929, -11105.336291574837, 15502.626301231432)
    CV[12] (81990.79637462215, -11090.730423423567, 15642.504660920033)
    CV[13] (81975.670083177451, -11076.123133587649, 15782.396635883855)
    CV[14] (81958.803085257867, -11059.834863050601, 15922.014568403214)
    CV[15] (81940.234242413018, -11041.903139974664, 16061.102942880256)
    CV[16] (81921.649367526523, -11023.955934936077, 16200.311404033304)
    CV[17] (81901.36950316513, -11004.371897590028, 16338.916010043915)
    CV[18] (81879.37895729029, -10983.13587431107, 16477.161799864392)
    CV[19] (81857.404106883827, -10961.91500796973, 16615.308918536113)
    CV[20] (81833.674106621824, -10938.999213116749, 16753.392510510996)
    CV[21] (81808.359508347829, -10914.553189752722, 16890.430479123926)
    CV[22] (81782.944563113269, -10890.010262455402, 17028.011665665181)
    CV[23] (81756.097106477027, -10864.083974979283, 17163.646269776935)
    CV[24] (81727.466353453405, -10836.435578201679, 17300)
    CV[25] (81716.432718935059, -10825.780521214161, 17352.547595351491)
    CV[26] (81705.175763987456, -10814.909806195177, 17405.006927115741)
    CV[27] (81682.342596484872, -10792.860072669837, 17509.78440776694)
    CV[28] (81670.765197508095, -10781.679908449254, 17562.107184968161)
    CV[29] (81635.723462364214, -10747.840498209702, 17718.935862334907)
    CV[30] (81611.94820267889, -10724.880996839689, 17823.310729829554)
    CV[31] (81588.184080059262, -10701.932250408987, 17927.686689921102)
    CV[32] (81540.665146463129, -10656.043749696815, 18136.397711826314)
    CV[33] (81493.185221152264, -10610.192918847828, 18345.128469340048)
    CV[34] (81444.91019373943, -10563.574266824999, 18553.503200578351)
    CV[35] (81396.63059022573, -10516.95119571294, 18761.897684136624)
    CV[36] (81347.556572026282, -10469.56096725719, 18969.944677726751)
    CV[37] (81297.870037168701, -10421.579238340975, 19177.69510073018)
    CV[38] (81248.188506704857, -10373.602342111615, 19385.424599253434)
    CV[39] (81197.889112691526, -10325.028781988825, 19592.875487244848)
    CV[40] (81146.923976876424, -10275.812322481888, 19800.000000000015)
    CV[41] (81095.320362247672, -10225.97929115236, 20009.719318224928)
    CV[42] (81043.029982401495, -10175.483058362184, 20219.120150674389)
    CV[43] (80990.039378534217, -10124.310627095756, 20428.16626517359)
    CV[44] (80937.049838606719, -10073.13922326403, 20637.20818246682)
    CV[45] (80883.35579407269, -10021.287487242796, 20845.913346972262)
    CV[46] (80828.96166446936, -9968.7596869294575, 21054.253026999246)
    CV[47] (80774.562470434568, -9916.2269959515215, 21262.612104744985)
    CV[48] (80719.458451101018, -9863.0136630951474, 21470.623888928723)
    CV[49] (80663.664421621012, -9809.1339951865975, 21678.265076556294)
    CV[50] (80607.878069836413, -9755.2617415423101, 21885.877691130332)
    CV[51] (80551.396644418593, -9700.7182630935222, 22093.13807976502)
    CV[52] (80494.192950517405, -9645.4772980787493, 22299.999999999993)
    CV[53] (80435.908256424591, -9589.1924233145455, 22510.771069455375)
    CV[54] (80376.866962047177, -9532.1769081493148, 22721.154510290173)
    CV[55] (80316.629506139099, -9474.0062732224033, 22930.854811026678)
    CV[56] (80256.400892462974, -9415.8441771396156, 23140.524329940308)
    CV[57] (80194.965301430639, -9356.5165165738199, 23349.547041269409)
    CV[58] (80132.43019642937, -9296.1270677117027, 23557.896586217488)
    CV[59] (80069.903500151762, -9235.7457390596173, 23766.218115641386)
    CV[60] (80006.264161063067, -9174.2899437357391, 23973.916359239905)
    CV[61] (79941.513132039734, -9111.7606019221275, 24180.91033278581)
    CV[62] (79909.129134038478, -9080.4877386046646, 24284.434439301062)
    CV[63] (79876.46371483487, -9048.94310999142, 24387.791258366957)
    CV[64] (79810.575258064098, -8985.3153669712101, 24594.153809005937)
    CV[65] (79777.350358114927, -8953.23045408285, 24697.165374792727)
    CV[66] (79743.850997099711, -8920.8804972241978, 24799.999999999985)
    CV[67] (79709.425916356297, -8887.636583216432, 24905.676352285336)
    CV[68] (79674.709554101297, -8854.111381922934, 25011.172347606265)
    CV[69] (79604.700446644492, -8786.504372794856, 25221.7866159232)
    CV[70] (79569.405642812941, -8752.420576964676, 25326.911056502649)
    CV[71] (79533.820779683476, -8718.0566741267576, 25431.840929720092)
    CV[72] (79462.61690426548, -8649.2958909913796, 25641.801372535891)
    CV[73] (79390.237474880356, -8579.3998885870533, 25851.016246564926)
    CV[74] (79316.712267255512, -8508.3974209994958, 26059.413205519711)
    CV[75] (79243.207041691145, -8437.4142498634046, 26267.753528107609)
    CV[76] (79168.541888651627, -8365.3109497862642, 26475.32762992907)
    CV[77] (79092.751948418576, -8292.1214553435093, 26682.0684212794)
    CV[78] (79054.846940696749, -8255.5170149193782, 26785.466197665733)
    CV[79] (79016.656250082422, -8218.6366937331331, 26888.664712159883)
    CV[80] (78939.704279739002, -8144.3250398580894, 27094.642071894534)
    CV[81] (78900.940724818021, -8106.89151004205, 27197.427003366865)
    CV[82] (78861.895386108663, -8069.1858647849513, 27300.000000000007)
    CV[83] (78710.852191579208, -7923.3251474834642, 27696.793922041616)
    CV[84] (78554.159269295909, -7772.0085515156343, 28094.202592761983)
    CV[85] (78394.650631724391, -7617.9728509039924, 28485.132704126132)
