  
  Rhino 物体: 曲线
  开发人员除错信息
  使用 Rhino 的"What"指令。
  名称: ""
  ID:05319308-34E4-482f-8736-27ED73A8CED3
  图层索引: 5
  渲染材质索引: -1 (从图层)
  ON_NurbsCurve dim = 3 is_rat = 0
          order = 4 cv_count = 104
  Knot Vector ( 106 knots )
  index                     value  mult       delta
      0                        0     3
      3        1278.669737926185     3        1279
      6       2565.8688396343277     3        1287
      9       3001.1473583991701     3       435.3
     12       3437.0535380555507     3       435.9
     15       3873.4858174032074     3       436.4
     18       4310.2995640505105     3       436.8
     21       4747.4213047107905     3       437.1
     24       4966.0228958206835     2       218.6
     26       5184.6262389973772     3       218.6
     29       5351.2745537236915     2       166.6
     31       5517.9233973599248     2       166.6
     33       5851.2210765092013     3       333.3
     36       6184.4096368096216     2       333.2
     38       6517.5982419366619     3       333.2
     41       7184.0325560256315     3       666.4
     44       7850.3857664179986     3       666.4
     47       8188.4225593528263     2         338
     49       8526.4603899901904     3         338
     52       9202.3397388495541     3       675.9
     55       9878.3710142509353     3         676
     58       10216.361438969332     2         338
     60       10554.354333089559     3         338
     63       10900.493721683446     2       346.1
     65       11246.635911047351     3       346.1
     68       11592.774052241173     2       346.1
     70       11938.915833861318     3       346.1
     73       12285.048214560516     2       346.1
     75       12631.184031473636     3       346.1
     78       12977.345291361769     2       346.2
     80       13323.510054853034     3       346.2
     83        13680.29937103086     2       356.8
     85       14037.092353316695     3       356.8
     88       14393.939280698738     2       356.8
     90       14750.790037798202     3       356.9
     93        15107.55965451999     2       356.8
     95       15464.333025396063     3       356.8
     98       15821.180098722944     2       356.8
    100       16178.030934686598     3       356.9
    103       16546.473632374906     3       368.4
  Control Points  104 non-rational points
    index               value
    CV[ 0] (86181.19718516618, -5020.4995547302133, 12299.999999999998)
    CV[ 1] (86117.540202928067, -4972.0936606780197, 12718.277984968481)
    CV[ 2] (86047.740425020544, -4919.0166762614426, 13136.135453827585)
    CV[ 3] (85971.897479573119, -4861.3443604704989, 13551.196263536434)
    CV[ 4] (85895.365342373683, -4803.1479710939593, 13970.028768621147)
    CV[ 5] (85812.859102297181, -4740.4087683329926, 14385.03005805819)
    CV[ 6] (85723.998111840832, -4672.8373011007825, 14799.999999999996)
    CV[ 7] (85693.995413632132, -4650.0227192637412, 14940.108925973218)
    CV[ 8] (85663.316031121532, -4626.6935747271336, 15079.998898284635)
    CV[ 9] (85631.91017804647, -4602.8120091372966, 15219.617248187003)
    CV[10] (85600.45816768732, -4578.8953447330787, 15359.44079563091)
    CV[11] (85568.270392395643, -4554.4191916739401, 15499.013589977712)
    CV[12] (85535.368823672208, -4529.4002574772039, 15638.304815902917)
    CV[13] (85502.426479548041, -4504.3503169452933, 15777.768667504464)
    CV[14] (85468.763680263088, -4478.7525295793257, 15916.97436630254)
    CV[15] (85434.38180154466, -4452.6079415067325, 16055.883945182031)
    CV[16] (85399.968783464385, -4426.4396745131817, 16194.919333232034)
    CV[17] (85364.828992924275, -4399.7187568998434, 16333.681241592447)
    CV[18] (85328.983988533073, -4372.4615822136293, 16472.139584327961)
    CV[19] (85293.112573595645, -4345.1843244814227, 16610.699942965537)
    CV[20] (85256.530228003961, -4317.3664625182346, 16748.980416895996)
    CV[21] (85219.225278963888, -4288.9991201251923, 16886.937182256384)
    CV[22] (85200.568387884094, -4274.8120904985954, 16955.93189773734)
    CV[23] (85181.72902688077, -4260.4863075180465, 17024.850033986317)
    CV[24] (85143.708758431414, -4231.5750236071735, 17162.534172344156)
    CV[25] (85124.52712156302, -4216.9889680111673, 17231.302935858388)
    CV[26] (85105.187969891966, -4202.283135376073, 17299.999999999989)
    CV[27] (85090.444866135702, -4191.0722187831889, 17352.37085688228)
    CV[28] (85075.610062554202, -4179.7915720229485, 17404.701324977181)
    CV[29] (85045.802256361902, -4157.1251895187306, 17509.299118748182)
    CV[30] (85030.829036644398, -4145.7392886829903, 17561.567120275209)
    CV[31] (84985.766440963795, -4111.4728947142466, 17718.305297350627)
    CV[32] (84955.533846457431, -4088.4834956703994, 17822.711111153087)
    CV[33] (84925.277599999841, -4065.4761112649389, 17927.105313354507)
    CV[34] (84895.03113820334, -4042.4761672886584, 18031.465755192094)
    CV[35] (84864.760662884597, -4019.4579630057751, 18135.815305777018)
    CV[36] (84804.041677294445, -3973.286173516286, 18344.432515908342)
    CV[37] (84773.592963213174, -3950.1324333290604, 18448.700563994691)
    CV[38] (84742.990874764218, -3926.8620645626756, 18552.897061837888)
    CV[39] (84681.781678072075, -3880.3175098896718, 18761.307149330973)
    CV[40] (84619.958197857268, -3833.3058431722161, 18969.437249819843)
    CV[41] (84557.583565993031, -3785.8750710022223, 19177.299034130305)
    CV[42] (84495.215918074595, -3738.4496095480072, 19385.137544629037)
    CV[43] (84432.292692199815, -3690.6016767992614, 19592.717691408063)
    CV[44] (84368.767478839858, -3642.2959821302347, 19800.000000000007)
    CV[45] (84336.541105809985, -3617.7904786689537, 19905.154420518436)
    CV[46] (84304.159342383195, -3593.1668136042613, 20010.234658615929)
    CV[47] (84238.965145231283, -3543.591994170471, 20220.182032623012)
    CV[48] (84206.151958342307, -3518.6402670822868, 20325.051728853821)
    CV[49] (84173.062864042091, -3493.4787351235723, 20429.781624137042)
    CV[50] (84106.904430868817, -3443.1706935820143, 20639.178887038055)
    CV[51] (84039.634697317553, -3392.0175995973973, 20848.038079399961)
    CV[52] (83971.351505362836, -3340.0938539359627, 21056.348487484451)
    CV[53] (83903.050728210452, -3288.1567361795078, 21264.712542441554)
    CV[54] (83833.727280231935, -3235.4419614572375, 21472.562625959919)
    CV[55] (83763.38619868776, -3181.9533601910189, 21679.845634568112)
    CV[56] (83728.216695446215, -3155.2098485144661, 21783.484081449064)
    CV[57] (83692.790065963636, -3128.270813501083, 21886.986770304986)
    CV[58] (83621.419671232245, -3073.9995043003264, 22093.705579233439)
    CV[59] (83585.474498489057, -3046.6661598293717, 22196.925758071477)
    CV[60] (83549.271301492015, -3019.1366091567515, 22299.999999999985)
    CV[61] (83512.194983494192, -2990.9431218479212, 22405.560107618076)
    CV[62] (83474.846978301546, -2962.5430387956962, 22510.971913597718)
    CV[63] (83399.571274178874, -2905.3020633307015, 22721.462853252091)
    CV[64] (83361.64184063609, -2876.4598518877474, 22826.54695141553)
    CV[65] (83323.400256978552, -2847.3802759821392, 22931.447664339954)
    CV[66] (83285.1584250577, -2818.3005112927208, 23036.349058276948)
    CV[67] (83246.602016681121, -2788.9815371080849, 23141.07233232884)
    CV[68] (83168.874421224114, -2729.8761001498719, 23350.151037042717)
    CV[69] (83129.701086561283, -2700.0880043166999, 23454.512236258954)
    CV[70] (83090.227068637119, -2670.0712636188027, 23558.689493607882)
    CV[71] (83050.753310619286, -2640.0547205582761, 23662.866065028942)
    CV[72] (83010.977000337327, -2609.8081114102865, 23766.864456707179)
    CV[73] (82930.824841481735, -2548.8589936040726, 23974.489169404962)
    CV[74] (82890.44685929273, -2518.1548625070018, 24078.121002675332)
    CV[75] (82849.768484123284, -2487.222307279942, 24181.562334746923)
    CV[76] (82809.08630651125, -2456.2868606083603, 24285.013336077023)
    CV[77] (82768.100876828423, -2425.1208157039605, 24388.278946112576)
    CV[78] (82685.529619013541, -2362.3321723059125, 24594.423651530338)
    CV[79] (82643.941592310686, -2330.7079019801877, 24697.308269552792)
    CV[80] (82602.060277924422, -2298.8606105178774, 24799.999999999985)
    CV[81] (82558.892672885151, -2266.0352009154881, 24905.845676662844)
    CV[82] (82515.412098703004, -2232.9718040470002, 25011.492885686075)
    CV[83] (82427.831707653211, -2166.3741272305051, 25222.37406125465)
    CV[84] (82383.729463548894, -2132.8380015688476, 25327.613854993098)
    CV[85] (82339.313130679075, -2099.0630372602709, 25432.639577525028)
    CV[86] (82294.889160557592, -2065.2822654505826, 25537.683358906546)
    CV[87] (82250.147845819069, -2031.260179186914, 25642.51845859049)
    CV[88] (82160.038127922657, -1962.7391575454578, 25851.754698488126)
    CV[89] (82114.667148564942, -1928.2382631798057, 25956.161802568342)
    CV[90] (82068.986169678217, -1893.5016396948768, 26060.349801808377)
    CV[91] (82023.314599604681, -1858.7721708377426, 26164.516341669831)
    CV[92] (81977.330888911791, -1823.8053447384323, 26268.469974972388)
    CV[93] (81884.75015010481, -1753.4053151359808, 26475.937646943985)
    CV[94] (81838.150526325553, -1717.9701378431962, 26579.457482922269)
    CV[95] (81791.245682812179, -1682.3028660716491, 26682.754061541818)
    CV[96] (81744.330167904292, -1646.6274795831539, 26786.074141327994)
    CV[97] (81697.105939036599, -1610.7173415449533, 26889.176120426298)
    CV[98] (81602.042954893346, -1538.4297687298827, 27094.924236813797)
    CV[99] (81554.201541713453, -1502.0503128356077, 27197.576151348541)
    CV[100] (81506.058919455652, -1465.4418122364164, 27299.999999999993)
    CV[101] (81456.562169553043, -1427.8036090499709, 27405.304767023586)
    CV[102] (81406.589841846901, -1389.803768098707, 27510.704668022689)
    CV[103] (81356.222649632167, -1351.5036651982246, 27616.032400433491)
