  
  Rhino 物体: 曲线
  开发人员除错信息
  使用 Rhino 的"What"指令。
  名称: ""
  ID:B1FAC31D-B075-488f-AE83-527FEBE76BC0
  图层索引: 5
  渲染材质索引: -1 (从图层)
  ON_NurbsCurve dim = 3 is_rat = 0
          order = 4 cv_count = 28
  Knot Vector ( 30 knots )
  index                     value  mult       delta
      0       8658.3881179736745     3
      3       8699.3235773691449     1       40.94
      4        9384.466151460847     1       685.1
      5       10069.608725552549     1       685.1
      6       10754.751299644253     1       685.1
      7       11439.893873735955     1       685.1
      8       12110.453129946967     1       670.6
      9        12781.01238615798     1       670.6
     10       13451.571642368992     1       670.6
     11       14122.130898580004     1       670.6
     12       14780.338843716187     1       658.2
     13       15438.546788852371     1       658.2
     14       16096.754733988553     1       658.2
     15       16754.962679124736     1       658.2
     16       17404.563547789738     1       649.6
     17        18054.16441645474     1       649.6
     18       18703.765285119742     1       649.6
     19       19353.366153784747     1       649.6
     20       19782.916127033855     1       429.5
     21       20212.466100282963     1       429.5
     22       20642.016073532068     1       429.5
     23       21071.566046781176     1       429.5
     24       21501.116020030284     1       429.5
     25       21930.665993279392     1       429.5
     26       23213.844646922065     1        1283
     27       24497.023300564735     3        1283
  Control Points  28 non-rational points
    index               value
    CV[ 0] (82242.168224262132, 705.11433241056397, 27336.912349670813)
    CV[ 1] (82248.305812235179, 700.81674705035005, 27324.605367733078)
    CV[ 2] (82357.037292967332, 624.68214468831752, 27106.36393567019)
    CV[ 3] (82563.743606410673, 479.94482598359747, 26684.046070983892)
    CV[ 4] (82858.886917138894, 273.28325518737665, 26060.948640884722)
    CV[ 5] (83145.997513001639, 72.246251879947195, 25433.978739437604)
    CV[ 6] (83424.829006675776, -122.99366167804706, 24803.653117492009)
    CV[ 7] (83690.108408796586, -308.74429858801454, 24182.811709527465)
    CV[ 8] (83947.471580508849, -488.95193130356961, 23559.226614914252)
    CV[ 9] (84197.033584930032, -663.69712788694051, 22932.600639673048)
    CV[10] (84438.681498426246, -832.90081835840783, 22303.242025618187)
    CV[11] (84668.763486213022, -994.00596047570707, 21681.564485078092)
    CV[12] (84891.205034663246, -1149.7612093855591, 21057.694430884414)
    CV[13] (85106.342925170029, -1300.4023819581466, 20431.381419761099)
    CV[14] (85313.368833217537, -1445.3634832740365, 19802.569638866364)
    CV[15] (85515.431117196407, -1586.8490176117912, 19177.593554695562)
    CV[16] (85713.774821943196, -1725.7307747505895, 18552.999262077185)
    CV[17] (85908.857257458993, -1862.3289666002956, 17927.306320767424)
    CV[18] (86079.13586334826, -1981.5593299864472, 17370.932305695955)
    CV[19] (86225.565226181759, -2084.090273617805, 16884.946120974349)
    CV[20] (86349.268850385037, -2170.7084837594239, 16469.190200316563)
    CV[21] (86471.611501960084, -2256.3737306120561, 16052.750406957157)
    CV[22] (86592.556000956203, -2341.0599804939693, 15635.749850601112)
    CV[23] (86712.078959342922, -2424.7508569299152, 15218.277097701273)
    CV[24] (86908.630560045945, -2562.3777693711459, 14522.683066423313)
    CV[25] (87175.203563830059, -2749.0341960999103, 13553.955992354171)
    CV[26] (87396.014852789973, -2903.6479251751725, 12718.306288823977)
    CV[27] (87504.261668145497, -2979.4431612929479, 12299.999999999996)
