  
  Rhino 物体: 曲线
  开发人员除错信息
  使用 Rhino 的"What"指令。
  名称: ""
  ID:A0C900A2-4D15-46bc-9C42-75D0E7CDC9CB
  图层索引: 5
  渲染材质索引: -1 (从图层)
  ON_NurbsCurve dim = 3 is_rat = 0
          order = 4 cv_count = 74
  Knot Vector ( 76 knots )
  index                     value  mult       delta
      0                        0     3
      3       1266.7163756463688     3        1267
      6       1899.9298311930179     2       633.2
      8       2533.0884799645091     3       633.2
     11       2949.9474422525072     3       416.9
     14       3367.2587314192469     3       417.3
     17       3784.2640061858315     3         417
     20        4201.402988302415     3       417.1
     23       4618.5929942871862     3       417.2
     26       5035.5195739258024     3       416.9
     29       5665.5860658011634     3       630.1
     32       6295.6506439118111     3       630.1
     35       6925.7072205087497     3       630.1
     38       7555.7566655348801     3         630
     41       8196.2623488158133     3       640.5
     44       8836.8902763263868     3       640.6
     47       9477.2304461419244     3       640.3
     50       10117.550395504077     3       640.3
     53       10770.098022412676     3       652.5
     56       11422.562846294628     3       652.5
     59       12075.141638775898     3       652.6
     62       12401.417635575424     2       326.3
     64       12727.698102572696     3       326.3
     67       13395.741198719146     3         668
     70        14063.78439409079     3         668
     73       14202.761492378651     3         139
  Control Points  74 non-rational points
    index               value
    CV[ 0] (-18387.291566022606, -8078.3547000693161, 12300)
    CV[ 1] (-18466.72318537208, -8136.5963731044703, 12711.109083081124)
    CV[ 2] (-18532.674594661337, -8184.9539471724584, 13124.311260024087)
    CV[ 3] (-18584.827868833898, -8223.1943099769342, 13542.090905931927)
    CV[ 4] (-18610.833549684216, -8242.2624641143557, 13750.412326007863)
    CV[ 5] (-18633.440403299563, -8258.8384950123982, 13960.128295223361)
    CV[ 6] (-18671.666343825855, -8286.86691427197, 14379.040504333718)
    CV[ 7] (-18687.424327720069, -8298.4211461153645, 14589.754768383624)
    CV[ 8] (-18699.577141550886, -8307.331957897728, 14799.999999999993)
    CV[ 9] (-18707.602516057057, -8313.2164059525585, 14938.840004080292)
    CV[10] (-18714.032619160731, -8317.9311526191104, 15077.077028033147)
    CV[11] (-18718.970174401824, -8321.5515179131817, 15216.138296154735)
    CV[12] (-18723.900588054199, -8325.1666467777486, 15354.998428626031)
    CV[13] (-18727.3277266025, -8327.6795287309396, 15494.255604244581)
    CV[14] (-18729.239850981008, -8329.0815563336473, 15633.230007968086)
    CV[15] (-18731.152661634245, -8330.4840871338056, 15772.2542905709)
    CV[16] (-18731.551768790745, -8330.7767246087187, 15911.169393650232)
    CV[17] (-18730.391801789367, -8329.926201613227, 16050.206729067942)
    CV[18] (-18729.231975271105, -8329.0757816242185, 16189.227225731927)
    CV[19] (-18726.514277197679, -8327.083082949599, 16328.270807033496)
    CV[20] (-18722.487817180459, -8324.1307603136956, 16467.207756468153)
    CV[21] (-18718.460568330316, -8321.1778592815608, 16606.171925356015)
    CV[22] (-18713.122051963768, -8317.2634971262905, 16745.098241471882)
    CV[23] (-18706.885934000646, -8312.6909862497487, 16883.93525175094)
    CV[24] (-18700.65345332483, -8308.1211423426048, 17022.691283751799)
    CV[25] (-18693.522323928526, -8302.892381931164, 17161.401411321389)
    CV[26] (-18685.402967164868, -8296.9390232339902, 17300)
    CV[27] (-18673.130659253951, -8287.9405947669875, 17509.490062549754)
    CV[28] (-18658.602554386373, -8277.2881475369395, 17718.699248156368)
    CV[29] (-18642.004943435841, -8265.1182756639719, 17927.729515050374)
    CV[30] (-18625.409177715934, -8252.9497567700746, 18136.736543114948)
    CV[31] (-18606.750532210979, -8239.2686718359091, 18345.487062506709)
    CV[32] (-18585.95688259754, -8224.0221371194857, 18553.916343163801)
    CV[33] (-18565.166792825064, -8208.7782125864524, 18762.309941047282)
    CV[34] (-18542.233808409488, -8191.9630526918045, 18970.468825144806)
    CV[35] (-18517.192193799303, -8173.6017811686597, 19178.142279084597)
    CV[36] (-18492.132489920452, -8155.2272460449531, 19385.965749744966)
    CV[37] (-18464.993920429442, -8135.3284235875772, 19593.030910766156)
    CV[38] (-18435.694409354001, -8113.8451332037075, 19800)
    CV[39] (-18405.942430111874, -8092.0300794334335, 20010.165283331618)
    CV[40] (-18373.966249898291, -8068.5841740349924, 20220.203275083441)
    CV[41] (-18339.848541885651, -8043.5680354864562, 20429.346227652379)
    CV[42] (-18305.702178767067, -8018.5308861449284, 20638.66483719863)
    CV[43] (-18269.364359706771, -7991.8868948244353, 20847.371118565927)
    CV[44] (-18231.595627116658, -7964.1937142940542, 21055.727130556028)
    CV[45] (-18193.845613430793, -7936.5142590321457, 21263.979877332553)
    CV[46] (-18154.677058424619, -7907.7946862396975, 21471.822417578882)
    CV[47] (-18113.992479985041, -7877.9635190740664, 21679.224067009149)
    CV[48] (-18073.307811382852, -7848.1322857984742, 21886.62617606996)
    CV[49] (-18031.117353138961, -7817.1969618762341, 22093.535188923517)
    CV[50] (-17987.44248948741, -7785.1732268764845, 22300)
    CV[51] (-17942.937179973535, -7752.5405837771259, 22510.390589745006)
    CV[52] (-17896.893183849763, -7718.7797289760365, 22720.30829638302)
    CV[53] (-17849.444077320557, -7683.9886045986568, 22929.69437275947)
    CV[54] (-17801.998130943586, -7649.1997973407661, 23139.066503839043)
    CV[55] (-17753.131898251566, -7613.3695930692675, 23347.969948283178)
    CV[56] (-17702.843294498729, -7576.4964631852972, 23556.307292374287)
    CV[57] (-17652.543254517946, -7539.6149479120568, 23764.69201486083)
    CV[58] (-17600.807159878423, -7501.6804737972325, 23972.570480040624)
    CV[59] (-17547.656172226569, -7462.7085572019641, 24179.851818503572)
    CV[60] (-17521.079485370185, -7443.2217241382059, 24283.497140385178)
    CV[61] (-17494.145684299157, -7423.4730440984449, 24387.005065437934)
    CV[62] (-17439.562230271062, -7383.4507996991842, 24593.721907624127)
    CV[63] (-17411.910553652197, -7363.1757515294657, 24696.938438011293)
    CV[64] (-17383.900182841477, -7342.6376978965181, 24800)
    CV[65] (-17326.570515370615, -7300.6018464887602, 25010.939195263316)
    CV[66] (-17267.670348780968, -7257.4144574826541, 25221.481602765587)
    CV[67] (-17207.3456067679, -7213.1825265585567, 25431.132498078194)
    CV[68] (-17146.991019902351, -7168.9287124832126, 25640.887115343608)
    CV[69] (-17085.166531992447, -7123.5971223695606, 25849.901970016843)
    CV[70] (-17021.839102239461, -7077.1635297015982, 26058.304529237626)
    CV[71] (-17008.669308307566, -7067.5070372568589, 26101.644654843894)
    CV[72] (-16995.433714029779, -7057.8022980023134, 26144.9609315815)
    CV[73] (-16982.133370678901, -7048.0500827630804, 26188.250654668256)
