  
  Rhino 物体: 曲线
  开发人员除错信息
  使用 Rhino 的"What"指令。
  名称: ""
  ID:1F0BCE80-0417-4aa2-B064-C15C6C24950B
  图层索引: 5
  渲染材质索引: -1 (从图层)
  ON_NurbsCurve dim = 3 is_rat = 0
          order = 4 cv_count = 82
  Knot Vector ( 84 knots )
  index                     value  mult       delta
      0                        0     3
      3       1265.4019426650138     3        1265
      6       2530.7422876496494     3        1265
      9       2947.7443502692167     3         417
     12       3364.9917505185244     3       417.2
     15       3782.1804370936306     3       417.2
     18        4199.379597049985     3       417.2
     21       4616.7718762774794     3       417.4
     24       5033.8934777748063     3       417.1
     27       5666.1546969251667     3       632.3
     30       6298.4567683313462     3       632.3
     33       6930.8643735944734     3       632.4
     36       7563.1516872740967     3       632.3
     39       8209.1156956970117     3         646
     42       8854.9486310167595     3       645.8
     45       9500.7815710992909     3       645.8
     48       10146.665563513772     3       645.9
     51       10809.396627800717     3       662.7
     54       11140.633404611048     2       331.2
     56       11471.873628265941     3       331.2
     59       11803.254721800426     2       331.4
     61       12134.639991184356     3       331.4
     64       12466.047486622188     2       331.4
     66       12797.459192888535     3       331.4
     69       13478.136670273709     3       680.7
     72       14159.023688797464     3       680.9
     75       14840.093978131526     3       681.1
     78       15521.137028994528     3         681
     81       15672.598154885643     3       151.5
  Control Points  82 non-rational points
    index               value
    CV[ 0] (-15456.032071068119, -15514.743153108098, 12300.000000000004)
    CV[ 1] (-15526.529653287429, -15579.342285462537, 12711.277127903306)
    CV[ 2] (-15584.739562371196, -15632.681839853842, 13124.702932376347)
    CV[ 3] (-15630.275068850757, -15674.407444013552, 13542.420354451278)
    CV[ 4] (-15675.549856213271, -15715.894143118378, 13957.746084286953)
    CV[ 5] (-15708.696063722737, -15746.267046394561, 14381.019870248263)
    CV[ 6] (-15728.551539200922, -15764.461237571011, 14800.000000000005)
    CV[ 7] (-15735.135152033121, -15770.49400725373, 14938.92404448836)
    CV[ 8] (-15740.255118853574, -15775.18559246662, 15077.330737469534)
    CV[ 9] (-15743.989412647079, -15778.607442286469, 15216.449096303437)
    CV[10] (-15747.718279941542, -15782.024319636075, 15355.365294921012)
    CV[11] (-15750.053962976328, -15784.164578815924, 15494.560124092101)
    CV[12] (-15750.980055139244, -15785.01318593579, 15633.562737720036)
    CV[13] (-15751.90659593318, -15785.862204150244, 15772.632689013721)
    CV[14] (-15751.423238764382, -15785.41928890778, 15911.668573470115)
    CV[15] (-15749.530151685889, -15783.68459420064, 16050.720495882219)
    CV[16] (-15747.637077415655, -15781.949911230107, 16189.771477496135)
    CV[17] (-15744.335503576311, -15778.924576194335, 16328.749510733633)
    CV[18] (-15739.685963832522, -15774.664057977385, 16467.680769785497)
    CV[19] (-15735.035948396897, -15770.403103869176, 16606.626242817583)
    CV[20] (-15729.035053925638, -15764.904297186871, 16745.603701384538)
    CV[21] (-15721.764385453112, -15758.241957001916, 16884.341806710556)
    CV[22] (-15714.49302128857, -15751.578979332677, 17023.093187156017)
    CV[23] (-15705.955637624971, -15743.755908528206, 17161.52885280476)
    CV[24] (-15696.206857489526, -15734.822797371218, 17300)
    CV[25] (-15681.446578497238, -15721.297493577889, 17509.654206637879)
    CV[26] (-15663.911172173353, -15705.229254095839, 17719.361891911813)
    CV[27] (-15644.694242344041, -15687.620182204155, 17928.343953507101)
    CV[28] (-15625.457240333011, -15669.992717546611, 18137.544297937031)
    CV[29] (-15604.51118589748, -15650.799194872674, 18346.27765087517)
    CV[30] (-15581.501549795812, -15629.714747985756, 18554.777872035444)
    CV[31] (-15558.506464569469, -15608.643634519523, 18763.146241448485)
    CV[32] (-15533.435486215043, -15585.670315463918, 18971.416945315621)
    CV[33] (-15506.411561366769, -15560.907450652763, 19178.893581120679)
    CV[34] (-15479.33628739734, -15536.09753304108, 19386.764450663741)
    CV[35] (-15450.387542103088, -15509.570895248866, 19593.170618918437)
    CV[36] (-15419.276827706326, -15481.06317776849, 19800)
    CV[37] (-15387.59362640781, -15452.03087269272, 20010.635372485576)
    CV[38] (-15353.670586902517, -15420.946134040973, 20221.693547220817)
    CV[39] (-15317.822584996691, -15388.097492330784, 20431.097215582948)
    CV[40] (-15281.905188845116, -15355.185262509845, 20640.906245718419)
    CV[41] (-15243.944094397937, -15320.400328228214, 20849.704722285191)
    CV[42] (-15204.050354256469, -15283.844450446544, 21058.186574886822)
    CV[43] (-15164.196713760166, -15247.325317219847, 21266.458869590802)
    CV[44] (-15122.424062684522, -15209.047734774012, 21474.364230720013)
    CV[45] (-15078.829113538304, -15169.10032379585, 21681.253260892416)
    CV[46] (-15035.152307182596, -15129.077904504727, 21888.530761725215)
    CV[47] (-14989.760611700385, -15087.484078845207, 22094.245690870408)
    CV[48] (-14942.330608337455, -15044.022488130198, 22300.000000000007)
    CV[49] (-14893.80987939137, -14999.561431559898, 22510.485944653541)
    CV[50] (-14843.10914121612, -14953.102764570978, 22721.215440104945)
    CV[51] (-14791.544194722497, -14905.852196558182, 22930.361750405562)
    CV[52] (-14765.727397663808, -14882.195460572913, 23035.074122196198)
    CV[53] (-14739.626952296154, -14858.278808799381, 23139.660554940354)
    CV[54] (-14686.826694825906, -14809.896286827801, 23348.548207125888)
    CV[55] (-14660.125291075365, -14785.428958153117, 23452.855595158977)
    CV[56] (-14633.109193171196, -14760.673265414851, 23557.00845741426)
    CV[57] (-14606.080990389088, -14735.906480599559, 23661.207986574918)
    CV[58] (-14578.73638295917, -14710.849764341538, 23765.259713425072)
    CV[59] (-14523.425252275152, -14660.166450967537, 23973.05072890548)
    CV[60] (-14495.456874673355, -14634.538154654952, 24076.796945030426)
    CV[61] (-14467.179893635792, -14608.62707539344, 24180.383556602483)
    CV[62] (-14438.900322974991, -14582.713623179423, 24283.979654699855)
    CV[63] (-14410.309751984814, -14556.51519166815, 24387.422905801664)
    CV[64] (-14352.479140071107, -14503.523199098388, 24593.966842437996)
    CV[65] (-14323.237001641033, -14476.727716029265, 24697.074870995584)
    CV[66] (-14293.658863078126, -14449.624345563607, 24800)
    CV[67] (-14232.964946162256, -14394.008617356634, 25011.200891329354)
    CV[68] (-14170.681969858044, -14336.936784493093, 25222.24409213418)
    CV[69] (-14107.200444012919, -14278.766683320349, 25431.931833949639)
    CV[70] (-14043.616685680934, -14220.502903332792, 25641.957262974473)
    CV[71] (-13978.721533374483, -14161.037452163633, 25850.98289197795)
    CV[72] (-13912.368515732551, -14100.236113538525, 26059.426519685192)
    CV[73] (-13846.058303916659, -14039.473999226293, 26267.735675713764)
    CV[74] (-13778.255838727699, -13977.344486627217, 26475.577505717694)
    CV[75] (-13709.211076636766, -13914.076618648174, 26682.245713493467)
    CV[76] (-13640.013484153546, -13850.66870741618, 26889.371380782624)
    CV[77] (-13569.807026964392, -13786.336342002711, 27094.602872914664)
    CV[78] (-13497.86306568528, -13720.41184742481, 27300.000000000015)
    CV[79] (-13481.951931726842, -13705.831979348019, 27345.425649986879)
    CV[80] (-13465.954121136112, -13691.172686770906, 27390.864250626713)
    CV[81] (-13449.874266158979, -13676.438214364793, 27436.3035714496)
